label,emg_ch1,emg_ch2,emg_ch3,emg_ch4,emg_ch5,emg_ch6,emg_ch7,emg_ch8
Close Hand,0.9463752025485668,0.8714947433440847,0.8895828228689259,0.8392524779401622,0.8152480669135951,0.8389988899768228,0.8749186059970191,0.8642389749190211
Close Hand,1.296585426095204,1.2213785731129614,1.270078342343685,1.352349753535644,1.3488260004237356,1.3476808408624126,1.5036988465421706,1.42871859896094
Open Hand,0.8510124730521288,0.9436324698279246,0.8532494735642333,0.9431083396406039,0.9452013140095563,1.0088992255135114,1.0800751209085628,1.0987234400125083
Close Hand,1.607141783580307,1.7022223957646956,1.6885169327848375,1.783775254642008,1.8480078672249933,1.9462230607075468,1.9688733483877967,1.9956973549130796
Open Hand,0.4588321040969507,0.43325835334752116,0.4172493380285477,0.4084130458807882,0.3922087784330564,0.4417767253678901,0.39856170952753933,0.4149816010544913
Rest,0.1395086872690607,0.07404988924364336,0.13717585229180773,0.09933021359990919,0.0,0.10682760156306131,0.11494956034778868,0.079739880719181
Close Hand,0.8016042786950103,0.8717542766160956,0.849853742230557,0.8332111658153509,0.8364563090943099,0.8290966817485781,0.9077629208736665,0.8242573002324937
Open Hand,0.4932599468967188,0.46089932716077364,0.4628468734338311,0.4975364451486743,0.4904719453914658,0.47678698876477,0.4002395428536888,0.4256512308169161
Rest,0.11272111767616365,0.2222350406046417,0.13521386572688754,0.2068582098582822,0.2352740028873587,0.11135506459674235,0.17024635419922055,0.18382770418937563
Rest,0.12206985355219943,0.05488759307064132,0.07120036829057365,0.07948649850277872,0.0945046549830962,0.08114787421098482,0.13491047188902874,0.11186642510653597
Rest,0.17809925253312217,0.09364953895022482,0.07945011947754606,0.17236779445564837,0.09819856561494601,0.15881681887955734,0.14932164951675855,0.13679611366437155
Close Hand,1.3534805176192521,1.4218404294223859,1.4560775056606152,1.4890231816820514,1.5642881350904057,1.553157880110462,1.6373850222928972,1.7021000214524398
Open Hand,0.6853852466897814,0.6924475709344439,0.7266429810174827,0.674651985305617,0.7371712478736601,0.8171961832980322,0.7797858560515071,0.7918044718828557
Rest,0.0907326027213738,0.031856415096013314,0.049671813884505325,0.08612794969189086,0.14371225208620944,0.08208483468029673,0.07544492350830849,0.07053290976796428
Rest,0.06199187359439238,0.11250545080588584,0.04872924898407137,0.06597708332247523,0.07394810832861796,0.13451438180888287,0.1589980032157135,0.05495719577684734
Close Hand,0.8991384618742504,0.8002086990533183,0.8429925516632125,0.8866040707116244,0.8489435299998951,0.8157212041584031,0.8027963520269115,0.8419500281390276
Open Hand,0.4163651280326488,0.49927155818389696,0.4930263725960395,0.47098545819266324,0.45715216905231343,0.457913780351553,0.44724424727162176,0.47242747969884247
Rest,0.14514321312502726,0.11376603817613883,0.10218476172638116,0.16806219704788167,0.1934567928000673,0.10606439948633435,0.24821401031592538,0.13248699886919468
Open Hand,0.8755016189749966,0.9239137964168647,0.9482414735553958,0.9538958013826557,1.04643403042002,1.0750450487964798,1.0778159490928017,1.094789609375933
Rest,0.12457260051913806,0.0480972533933392,0.06407275226976523,0.039993875419348936,0.07649217024317605,0.006130231765694709,0.05396101397102489,0.08282485087887793
Rest,0.1623503435210492,0.1792735791801558,0.20597177263006403,0.1649761951359714,0.19252547137860274,0.09572910068984994,0.25611648620207095,0.16044436939932707
Open Hand,0.4724753533304742,0.4656074921918459,0.44640949188269974,0.5074756592175642,0.46089805951925816,0.4653185655067587,0.4865572162917699,0.46269075498938095
Open Hand,0.8760173422112346,0.8331409812042282,0.9539942804316316,0.9481981915150798,1.0319266842509893,1.0043008115954433,1.0844538687011551,1.1077309579281702
Close Hand,1.667080409009856,1.6742115820329901,1.777528443448889,1.7806792007313934,1.8354801196627297,2.0,1.9679430264060818,2.0
Rest,0.15220643431447062,0.17969771066431928,0.23023133700905546,0.2299473336142034,0.17049900005544089,0.19517849210985452,0.25545685154667835,0.20741782518077378
Rest,0.11251861563270424,0.11664935578129379,0.03196405226697974,0.08998646355237681,0.0,0.024057924168502692,0.011615914995422957,0.07884245030836584
Close Hand,0.8304669550065299,0.8844838868240821,0.8859154698270274,0.7923587631282968,0.8213640668734923,0.8337598464580313,0.8709681131157838,0.890007645597698
Rest,0.1755353923737067,0.1709898636841505,0.15311843806729777,0.06823986505642418,0.08446849646962933,0.09752689824096239,0.14168632504110523,0.21893681789949676
Close Hand,0.8459023168621498,0.8725254882801594,0.9323309864059336,0.8641419546842033,0.8232175784394192,0.8280350989042456,0.8500230372878051,0.8278486874158676
Open Hand,0.538224804225529,0.48099899787784567,0.4956515546431167,0.4778335054225816,0.51485027412285,0.42245493057846106,0.36037419150194827,0.4343856037076491
Open Hand,0.7370468816719185,0.7899717827489023,0.8120161448937253,0.8107603891822385,0.8972420175442031,0.9757557790128103,0.9680989697716543,1.0135368845357144
Rest,0.1661113586935978,0.12137630047955178,0.1587925004466052,0.12111097345719815,0.10588218858201763,0.2010938918695996,0.18122781365684673,0.17623992596423493
Close Hand,0.8365612240922098,0.8102770988169031,0.8217805126654256,0.8415637595108205,0.8731772498727105,0.8940642123450235,0.8025383476942882,0.8290929245124505
Close Hand,1.5813114939750799,1.7066671292590354,1.7167770414892183,1.8076560114624258,1.7785822988281728,1.8397359251464493,2.0,2.0
Open Hand,0.6848791558866119,0.7339444959529141,0.6841283233616755,0.704657770741205,0.670304418563601,0.757672865846258,0.7440883071111211,0.7806490700292693
Close Hand,0.8861204584187797,0.7420978082930095,0.8431749154578367,0.8885757973971838,0.882357859390993,0.8073096831665043,0.8397197286046244,0.7612272073179598
Open Hand,0.7745637464889754,0.7801336387787633,0.8838021411695577,0.8700399813277829,0.9068751159640434,0.9082710579888577,0.9284121592034495,0.9600932060861589
Close Hand,1.3581001059131883,1.4727889533577363,1.520348671017629,1.5648789752030772,1.6488412202135498,1.7075330939217437,1.6730303824271104,1.7496932443350264
Close Hand,0.8908298497286385,0.838414118661108,0.8920884648676766,0.8022601019908033,0.801406549465355,0.8075169409868075,0.8503224092421231,0.8920832340802214
Open Hand,0.43654074614937294,0.4731482366462098,0.4275460047726004,0.4580948707960178,0.4395231732286897,0.47352400102837533,0.4666294823571803,0.42578232063388866
Close Hand,0.8625598037733339,0.7887109448480041,0.8107180870236605,0.7621174897233501,0.9105455863101818,0.9034585110204512,0.8637486484175219,0.8547290286079472
Open Hand,0.4336981142299673,0.5331112292509251,0.38917998917020036,0.45712716125484304,0.4105216441773016,0.43273095308660625,0.45494968156691906,0.36861200187939996
Open Hand,0.48485785396877906,0.42883904843371606,0.3855165438289265,0.38291908863686264,0.4059205426652853,0.4040391298630022,0.4445886234483032,0.40838919462408385
Close Hand,1.7086086018845843,1.7575787339379068,1.8502665685606592,1.9148050635084588,1.9573783141761225,1.9921715088105532,2.0,2.0
Close Hand,1.5819147660320276,1.6540001837005383,1.7237465888912908,1.756440676382008,1.8366332927899385,1.9350732836288118,1.9362068270014374,2.0
Open Hand,0.9053591559395443,0.9354612791607698,0.983942319660178,0.9530908714244244,1.057958220344069,1.142769450058135,1.109083861852001,1.1396575566309115
Open Hand,0.7188164001480505,0.756542729469875,0.7605893624003424,0.7120520989088421,0.7321429196305622,0.7801307826913491,0.7860078059707744,0.7809736671372318
Close Hand,1.7131751757719575,1.7207428010127748,1.7306704041660825,1.8477061772161487,1.956389344053699,2.0,2.0,2.0
Open Hand,0.46961848963454955,0.4278504790801759,0.4439473410506025,0.45574515760267487,0.45861973320228505,0.4672802950061087,0.4297281755416285,0.4029850441761429
Open Hand,0.41799057336221274,0.46052500896362053,0.4112696127174243,0.47416950613959885,0.48702421688451175,0.4595316690394915,0.3851520764727269,0.4161622267591888
Open Hand,0.47538634221013193,0.47013715661326494,0.4647765331503104,0.43779945619157545,0.4217638811994043,0.4693104894165323,0.46492565956693965,0.4303685318204661
Rest,0.12224584112604923,0.14471698871075073,0.1011057331079372,0.10867575188351859,0.16857027992004148,0.2103664503663345,0.1467761301034684,0.09397342229199213
Rest,0.07819871344255147,0.20972903484165778,0.08549899477273049,0.07390720238530717,0.08345627663470104,0.03151106052806187,0.08413935768146112,0.07080076923562932
Rest,0.06477278367093259,0.10624461408638664,0.0301760346144652,0.0839609146323116,0.02545559585116379,0.11792283854216659,0.06236555294044874,0.04614358617397115
Rest,0.17248398125124492,0.2450198137732595,0.16502642441437687,0.21348642024812456,0.17057793792204196,0.18951823870046494,0.1777145557140176,0.24248910576910926
Close Hand,1.0377223338293624,1.0083887214574156,0.9907486757085551,1.0086983677741392,1.0615549593811757,1.0437503872023788,1.0914330477917793,1.1755846011638809
Open Hand,0.8821485681220376,0.8601885503753228,0.8505651991183419,0.9118514147671868,0.9444901369438006,0.9280151920173658,0.9968716644814587,1.0098937008224442
Close Hand,1.5437720119773637,1.682559235787009,1.7209499143413316,1.7932939379080641,1.8174071535066627,1.9371997285667801,1.919752881961691,2.0
Rest,0.05599825585345775,0.04270619880730114,0.12459469476983179,0.10686042583919325,0.1217307252691247,0.07671913865555724,0.08472128537968163,0.07177684252328893
Rest,0.042682109302485595,0.12210117413938426,0.08548778941017698,0.08054697609140118,0.1210752543265364,0.11549675662682075,0.08776777926991833,0.0227145299297335
Rest,0.05129367463589524,0.14782371114365553,0.06485769099327754,0.11587919146740168,0.017597580680582644,0.019230909292913396,0.15843626029083854,0.09344046415956658
Close Hand,1.2329341624956358,1.1950326019599964,1.2704339673991025,1.316273562301442,1.2579137534032545,1.3727688033492003,1.3187064139725964,1.4016854202890692
Rest,0.09055936789949356,0.0168955113174553,0.05325422575164647,0.024039953600293432,0.07262552210274492,0.0,0.14372862624844485,0.03322211744830963
Close Hand,0.8697189593181961,0.9400175550834586,0.8717854366365813,0.8095889330354887,0.8598640368546515,0.8051759462030627,0.8931481291244101,0.8165441094190226
Rest,0.03345017717435203,0.15027495698885834,0.10655880175555969,0.09444945978442171,0.08343545512145202,0.015689269974352094,0.10918717140885517,0.08429763449881317
Open Hand,0.49452836016202345,0.42379588943205154,0.4531952820261409,0.4834119727778307,0.47831911209349603,0.44441355663677645,0.43988829417015696,0.3891414588117674
Close Hand,1.1460025826309244,1.1615090004367834,1.2408875719622425,1.1821296558281296,1.2279439545319797,1.2408286352128188,1.3468925611424372,1.2901046475849225
Rest,0.1352208616747552,0.0,0.16787439460701115,0.007549824132388045,0.06671034524263529,0.06806421600981664,0.09711234546181984,0.1355959470184138
Open Hand,0.44435696990867196,0.5161282841106074,0.49847708694670245,0.462406763424841,0.4491147007052267,0.479547041674251,0.4895489637937645,0.4209563566227365
Open Hand,0.4916074440023856,0.4718986450058654,0.405741030281823,0.5122013994090203,0.47305790789281676,0.4496431359531234,0.5056576581967623,0.4555754224340374
Open Hand,0.4676555626681864,0.42553423514136257,0.45149208585532113,0.4469653354705257,0.44042036014637814,0.47766192036246463,0.39634972925765527,0.4319045021265974
Open Hand,0.5302193817927989,0.5767754817504762,0.5717675155497,0.6385189744509816,0.6595155233292549,0.6654512795057131,0.6122438348290156,0.5529915857424585
Open Hand,0.8358173463018025,0.8460369373718056,0.9064371212585419,0.9557467559178834,0.9607260764707389,1.029433206160438,1.0216426094338225,1.0957629910611253
Open Hand,0.45035863394059145,0.4500094536430863,0.45908639717661254,0.5232084181288421,0.461768688622333,0.366768111303722,0.46142046302010464,0.451325799807136
Open Hand,0.46014599165714404,0.45550314952026677,0.44268387103904033,0.473748338299001,0.43702276406882784,0.4582449454723963,0.4805177028281808,0.4303367709766044
Rest,0.14332233598476646,0.12539848531232894,0.0981088069758418,0.10853273526880357,0.08851792406713978,0.13438189584911878,0.13902588689766365,0.11888943783256113
Open Hand,0.8591409740029005,0.8858855063628343,0.9709735418251745,1.0072845762002385,1.0741637687421806,1.102703872436522,1.0946739865345037,1.0908521885915097
Open Hand,0.5233669323457011,0.6457843909155505,0.5928003717088995,0.5913857808482347,0.6859711006602021,0.6835754363844455,0.6509673914619669,0.6506594259099555
Rest,0.05375891121607647,0.05025962014629791,0.13369501310593934,0.07715269444024242,0.015673697414299886,0.07910385231238075,0.10383595256477415,0.06485581716008867
Rest,0.17578194273290784,0.19092974526084222,0.18943386421125555,0.20555451155524979,0.1749366717197957,0.15747359624994517,0.2003943282925234,0.15317424696775425
Open Hand,0.7729864932085667,0.8337499165831238,0.8970770604969588,0.9395565137528191,0.9776271018815686,1.0261147221601485,1.0466969402973632,1.1271786272655004
Open Hand,0.4730819474988164,0.43610801555667733,0.45398118537201504,0.4757892785822018,0.4338105499286397,0.4848794209574442,0.4152205743012731,0.46031074948954326
Close Hand,0.9584503878687654,0.9339804238311068,0.9051692262731508,0.8891454463735724,0.9835597880924356,0.9416384841424849,0.9786693420223626,1.016825553974493
Close Hand,0.8332581914028023,0.8905683755432964,0.8362541847619651,0.8721168383295274,0.8562846830820516,0.876036565580007,0.853848141225167,0.7917810905679864
Rest,0.046112818442062796,0.11644603039022774,0.06113813361155272,0.06610733193224648,0.14153559990000314,0.08251497452153371,0.08332350181106764,0.08833691720257901
Rest,0.03656579932068228,0.1335868444094756,0.09580335291714805,0.14366104426635498,0.15398548296040915,0.14245251981730409,0.14753552438840484,0.23083039312110787
Rest,0.047094945768534666,0.06477679826919669,0.13803773662123786,0.13588808070724157,0.05224393762101656,0.10698321876291869,0.06187538351483578,0.008558906992237957
Rest,0.15049623235683024,0.20947132726265386,0.21693397141989584,0.12135481341348993,0.14686841641881648,0.10666881614715096,0.130390487471983,0.18458431825599286
Open Hand,0.524383986027495,0.5337131611226681,0.5237969688329785,0.5742309647713388,0.5632467075814817,0.5503890203521428,0.5574843958980363,0.5453618720519668
Rest,0.1038902918318383,0.13211851961266288,0.1470694375122725,0.15735110451052634,0.1906781922257269,0.19695371841327977,0.1490393638388393,0.22810273814898033
Open Hand,0.46165998862262886,0.37446126180382255,0.4486993725273141,0.4142907847758553,0.45354574693036426,0.4122792274683458,0.4648486848109316,0.45067645982835863
Open Hand,0.4495304474576317,0.3708854834931752,0.4433233838882908,0.44430203511785876,0.5233599562578903,0.39900017304781554,0.43632628390902817,0.5097048438190598
Open Hand,0.39747657090263566,0.4141106455277733,0.43117660287750015,0.4929947284298053,0.42761738131893834,0.47240747807650657,0.4311589328998447,0.45867816462981564
Open Hand,0.7746941255069802,0.8041540746524708,0.8699031597934437,0.874986994199491,0.902033665138787,0.8813125827768407,0.9137301332542951,1.049509805151916
Close Hand,1.650067871775412,1.7170101723972666,1.7502539910023591,1.7816725103145121,1.9533936483722698,2.0,2.0,2.0
Close Hand,0.8624492683739798,0.8246832869163718,0.852280917322748,0.9172315287730107,0.8378029872690586,0.863455030316688,0.7952065470386046,0.9032037142845905
Rest,0.07498638380840929,0.0065099637848244855,0.09015206520645701,0.10915404996536596,0.0521444828315251,0.02273743267568231,0.11623838618781587,0.047522647837089774
Close Hand,0.8613931580993743,0.9210026043098607,0.8923738668137244,0.8606371307778623,0.8799540429337096,0.8195788431944272,0.8408820746030098,0.883174744546442
Open Hand,0.47394132695910834,0.4285070328629471,0.393691765175551,0.4733994370139858,0.4893083120654539,0.4484251677324948,0.38137040405356637,0.4747089411344586
Open Hand,0.868958302036115,0.8737615707553659,0.8861493635549348,0.9333421387217448,1.0198162273526175,1.0546209115831509,1.0147507381139893,1.048324874468512
Open Hand,0.49929570954862246,0.36112772288765177,0.4779250720097744,0.4337689271770862,0.43563807439919355,0.5092310304641234,0.4250054117729982,0.4261975796090057
Open Hand,0.8922455523802673,0.9024523942545578,0.8673808451904703,0.898399916336035,0.9998710941909492,1.0259200660144967,1.0633858708554509,1.0993778415455493
Close Hand,0.8394613741702561,0.8915406001450586,0.8702682866228059,0.8864824623003846,0.871712297782099,0.9343617071074193,0.8294116130320115,0.8639346086952913
Open Hand,0.4409135089028979,0.4839431570587111,0.4805997187621673,0.4156331553917219,0.42005657414819986,0.45380457534846935,0.5104146331134328,0.3829552192435852
Open Hand,0.4324430005269834,0.45481686118225534,0.5173269527147951,0.43866271341250074,0.46020988531829377,0.5198161246443189,0.4307494547569606,0.513513637212514
Open Hand,0.7124326370664569,0.8003525455217048,0.7636974124161227,0.8681637424334704,0.893636371289989,0.9572890352577732,0.9891594897076671,0.9815862929735542
Close Hand,1.6871038402588336,1.7071915641359394,1.8011347479019286,1.847790349909243,1.8555200830314467,1.9653342344302474,1.9891751282806045,2.0
Open Hand,0.4362134344504494,0.4032428941712998,0.4632913265974544,0.4759078072261991,0.4307700543078611,0.43470404423364994,0.46881004195486775,0.4250101715967862
Rest,0.027579008343282623,0.18060435647341022,0.16870562055674007,0.08409027943347673,0.12477113713600645,0.13916026534768813,0.1399700968753782,0.11542358414149789
Rest,0.1046479411301661,0.14592791217656395,0.061282140841285526,0.046229084937797205,0.08792939596307627,0.09844601306401912,0.0723953042442827,0.03477790852254464
Open Hand,0.4439849420354551,0.49127682334017225,0.46957795235575756,0.39864653022796315,0.41142520397577664,0.42082414409255364,0.4200807779073526,0.4468398588862615
Close Hand,1.394841326240066,1.413120563009937,1.488074545476834,1.5454499852066796,1.572891457421938,1.5778090628235015,1.6357772344837391,1.6793965488957474
Rest,0.11243866002285892,0.06678676541310802,0.08111472260917481,0.09439863378166692,0.0990316270380111,0.12679144679147367,0.05262299042637063,0.01361566055038834
Rest,0.13025538496811942,0.09516571342317057,0.17443731867278514,0.15689682980244915,0.2252412332988829,0.21061493921354144,0.17225679781471642,0.19345585321288342
Open Hand,0.5915606977085158,0.6105622358419643,0.5780005671108536,0.6150444527680482,0.6251880332919267,0.561760034246233,0.6424258965707181,0.6554224099474987
Close Hand,1.7015666307250281,1.7881872826864287,1.79766870732096,1.8695329041527038,1.9137424601746187,1.999830831308811,2.0,2.0
Rest,0.0869402890656943,0.057832203446826894,0.0946105545407053,0.04832588504466978,0.06919213549360421,0.09167054725461568,0.07179910095059046,0.09765450986436375
Open Hand,0.49790746211662473,0.45195787725463404,0.4673642247831075,0.46282165267775155,0.43991000896554383,0.4641743811623637,0.5282035186169189,0.4405361070266595
Rest,0.07271317600750257,0.12099143564749933,0.07186769549297027,0.06540369083363505,0.10604823367903417,0.07279091352448522,0.05242597368822738,0.03241235320940936
Rest,0.10519306900587515,0.16431878820754325,0.20477091524626362,0.18558482170223017,0.2742358497430343,0.1862473424372313,0.20259816049442167,0.19191401533428581
Open Hand,0.8828398300757183,0.9341033347341736,0.9211607149871665,1.0199333714761407,1.0142998975179436,1.076185631828583,1.0983179261396876,1.2112185362165733
Close Hand,1.2489954301493384,1.331867190520847,1.3893489647561637,1.3990471906585535,1.4066301515907575,1.455282699277479,1.4952047311366221,1.5378545325388995
Rest,0.06367056700201196,0.09094445753646234,0.14050152445757796,0.06044170470381735,0.1283898358794433,0.08258203141356944,0.03560944580322173,0.11578212648957874
Open Hand,0.4755400485824298,0.39445155947206156,0.4508795048925612,0.4423022471656783,0.46195280399378813,0.44954714311637445,0.39912402520239293,0.4058163745399992
Rest,0.09453281259823951,0.11399422823248245,0.15034472217282388,0.09935090956838505,0.1791170447405918,0.186205950115382,0.12656198871390784,0.18066365344889374
Open Hand,0.5162531908728509,0.4500194645265667,0.5047158561738081,0.48627066326353696,0.5120187553983925,0.5032735967429904,0.5396548090710367,0.5030047720165999
Rest,0.047202953813355576,0.054281538474903024,0.03561370649842592,0.10564574274083768,0.05759088234562003,0.014103764239312477,0.08590298153699093,0.003955568784674832
Rest,0.07812317673248755,0.08937659782741744,0.08591096649120984,0.0983403722025118,0.09175965175570516,0.11072187847566875,0.058587219657337306,0.08907358447819186
Rest,0.03870126581023646,0.025610092361464627,0.14003040277379364,0.12355117359908128,0.11554840520038712,0.09195969267866587,0.07425760816955859,0.040056746696889904
Rest,0.05886310678608253,0.08018181340053243,0.08907785203108332,0.0,0.046777785004977965,0.08023674989762425,0.09650915300881095,0.021715823959221857
Rest,0.024888747062975215,0.11230745460597183,0.06052691524320627,0.07891279873794026,0.08351785004125545,0.14719362453572693,0.08029527871925299,0.07716520040052967
Open Hand,0.4510897198530742,0.42030162586265757,0.4132992924310343,0.4236787311221698,0.45777462848923084,0.4490565457247678,0.4575370327651062,0.4675284596741139
Close Hand,1.5752074722878986,1.746319702778249,1.8319993872551532,1.8375181802826417,1.9187204689728772,2.0,2.0,2.0
Open Hand,0.8857848788261091,0.980670634297218,0.9404275926186172,0.9667607958675694,0.9851680631005957,1.009445154846704,1.0360506556547153,1.0825320821614954
Close Hand,1.3677391446597902,1.370337522765717,1.4857364558016477,1.4733925063723021,1.5891430315072232,1.4955747420095233,1.6157764441104874,1.702225642961678
Close Hand,1.7029874576400503,1.7370875095710954,1.765778919432282,1.8696629317170663,1.9390882929917186,2.0,2.0,2.0
Open Hand,0.9060796620346471,0.9006223797838242,0.9614858480144988,1.0323097087902762,1.0446706935146468,1.0274892012380812,1.0667302833083956,1.1002402293731326
Open Hand,0.41171920283991653,0.4859417011212217,0.3827473414307977,0.48951468853367064,0.4480714265335199,0.40826616343451483,0.4295909724694058,0.41439714806144257
Rest,0.11916787935276313,0.11239163074119204,0.10324117136667743,0.10270698633794909,0.03727970239423002,0.07301102500897381,0.13249365946801026,0.1011761480895219
Open Hand,0.7738979428294718,0.7266162654692467,0.8422489998818539,0.8146736942300208,0.780608984947037,0.8200833114484778,0.8878950951714374,0.919588402361292
Open Hand,0.4769138055050811,0.4786686459119249,0.4312719496318151,0.4358893063074483,0.4689395793376314,0.4210345515742869,0.4356313104194745,0.4531357468578952
Rest,0.12324666134776814,0.07756899723135693,0.13163298983190297,0.11956994259756826,0.041543552467163444,0.08812406178948728,0.1553832351147978,0.09436676546822849
Open Hand,0.4497981358836026,0.40345381421457965,0.47547251526085665,0.44814644677179405,0.49066071765051444,0.4252291427182022,0.3939203845427152,0.44880908990609236
Close Hand,1.047007152697952,1.0251762226621577,0.9788614650154625,1.0396343803964012,1.0629482651610276,1.0285766305072728,1.0685263859663192,1.0442968689886694
Close Hand,1.6916478897619354,1.7611295105180806,1.788223906816501,1.8956103158607047,1.9265339954337644,1.9739342213104178,2.0,2.0
Close Hand,0.8980628832430064,0.8831250965137323,0.9064886281053386,0.9355761290851904,0.9001641115875967,0.9366180047522588,0.8939402187734328,0.9528659085497994
Close Hand,1.4785734571794356,1.4740691407396824,1.5481464062617218,1.4890535969500844,1.5871585343747217,1.5847903504405054,1.723428822867981,1.6876972585388206
Rest,0.1394881855438056,0.1411301624142082,0.1504010552062703,0.2692822380689239,0.23105016447515875,0.25630953998819206,0.26736289392869483,0.21587258337983772
Rest,0.14761916912701856,0.016788545893677426,0.10905861915478476,0.09438397149246776,0.12243274496057287,0.10544552347666315,0.08418970335048634,0.050974033027987614
Rest,0.14621257667664056,0.17013750461053018,0.07493571338577694,0.06503975551275305,0.07440694068484258,0.10985498211276004,0.09180688233489738,0.12399942862853694
Open Hand,0.4450511574249669,0.480556981003246,0.4312816031623505,0.3949615112499146,0.40163178390227283,0.4313842877120035,0.4062829010262682,0.4643574205487843
Open Hand,0.3837390093566663,0.45760456053800186,0.5051278989663056,0.4671033983563558,0.45597187774889275,0.4303842685918924,0.4510866520170994,0.44117780146088253
Open Hand,0.4649672676607911,0.43879157401944985,0.5115841544307255,0.4183781111971656,0.42426578583838837,0.4160563677858361,0.4613212767832714,0.40194322691509754
Rest,0.10367470316244405,0.13418180533753066,0.10560387409052319,0.06479134535965185,0.06051848418261924,0.058132982999112875,0.11108071827155483,0.047751940748889554
Open Hand,0.3807787828171505,0.44084533346267596,0.45197738421976313,0.4049854487151923,0.44879337972378786,0.4518813397046676,0.3745397197879217,0.41797063691821745
Open Hand,0.4169451992558918,0.4417697273684948,0.5360385262007796,0.49872248223409893,0.4201471763772705,0.472665093607159,0.4208967029566768,0.38782713264038227
Rest,0.18237906463986478,0.07699866058347894,0.05966363687349828,0.08899399557528469,0.04188117816431129,0.15889754594302025,0.08837735105745523,0.023830201407316464
Rest,0.045607239852724295,0.1394383544319739,0.06254928108068813,0.06162734978452983,0.04684617665229099,0.14865143006815382,0.0539465145191092,0.13880148625534047
Rest,0.13216422176461332,0.18366796056703294,0.16909703127772543,0.13369524371489916,0.19388270137214728,0.1476550839424623,0.2810018553158816,0.2250929259184311
Rest,0.1290487730931875,0.04626055330552919,0.050860877970954746,0.07231870444810765,0.1293345092169159,0.1131741301872147,0.09775989126548106,0.0512141155854476
Open Hand,0.8696069465698265,0.8813665897342257,0.8600519374471677,0.9047821590828512,0.947820073462083,0.9537668207478205,0.9826466586719488,1.0354455912834162
Rest,0.05156148331482925,0.10851054936664574,0.12104610309670602,0.057487252165359826,0.07988406547404645,0.0618482654559437,0.050934729116088345,0.13139823460732825
Close Hand,1.698337844881766,1.7092782449791866,1.7820619926087555,1.8535215836295742,1.9549879689490208,2.0,2.0,2.0
Close Hand,1.2957028972474305,1.2908769416623482,1.3189289286164738,1.3066853743498714,1.3359777317158077,1.325249538802063,1.4334806635960318,1.4533671941131712
Rest,0.14563685911712582,0.10030099484538586,0.18920663833805965,0.11410916232787596,0.17096059288224272,0.257794841740591,0.2482481422676418,0.19990702545626676
Open Hand,0.5237184104196166,0.4934208791167575,0.47747713213874954,0.416327300447494,0.43204518377811396,0.44668043875750246,0.42286075065963763,0.46751625837447913
Open Hand,0.35390351472579173,0.41827341176843164,0.4482203684011752,0.4375185983204243,0.45864858976906475,0.48953188095317723,0.43874624753711255,0.41298208213569976
Open Hand,0.8298322644603533,0.8658211495099954,0.9767459490430652,0.9563994575493824,1.0453332456178912,1.0138137467911874,1.113332091688741,1.1001104999193092
Close Hand,0.8338108815407861,0.8429176184089081,0.8458445441184871,0.8482031699112121,0.8908785410604325,0.7678489195081641,0.8510688406603643,0.84721762685068
Close Hand,1.5065057895256178,1.559753520595007,1.6815374272671835,1.656932205268185,1.8246516616124207,1.836889202786477,1.8858388732086242,1.9072307933370922
Close Hand,1.5490201870783256,1.691369299843472,1.6691498090697765,1.7092214240604242,1.7624809836354705,1.7939823660096508,1.9657213206491733,2.0
Open Hand,0.458987432352985,0.39151293203065407,0.47448856463735023,0.41662502148570907,0.46297128380885005,0.43174328819246444,0.44074534505463536,0.42350815445322276
Rest,0.06728916931080639,0.1188524243688371,0.07456227468499735,0.09680759775647747,0.1315092944272344,0.1304213163150624,0.035674016059749986,0.05708673926832766
Open Hand,0.7236645564667136,0.7893576868777935,0.7998206915376429,0.8530359577182147,0.8218149823031472,0.9144331654891578,0.8731184264235307,0.9971565059192997
Open Hand,0.5158306707452748,0.4448449090262905,0.4703217916806445,0.40176645304630915,0.43351499085627626,0.4264689446787855,0.5014403317577991,0.4294965237607441
Rest,0.17986492053782238,0.16114939369405823,0.17162699409977172,0.2000396205551273,0.18624809089686137,0.15102397808739582,0.1342131120386837,0.08277977885021748
Rest,0.09940268633698549,0.0626968162060874,0.10806889194921325,0.08044011709742645,0.020702274352527913,0.11992118446384525,0.1098973338979504,0.09358438425461268
Open Hand,0.506493987305857,0.45353155373014736,0.4281869785793853,0.4282511927258509,0.427280690742661,0.42518643426339553,0.4050898269088719,0.3974852859222822
Rest,0.05003542345268069,0.08343117715890298,0.09074689295302082,0.0,0.07701255212055075,0.08957523783156879,0.10278849468107415,0.13923978394739112
Close Hand,1.5693775221954334,1.5738023515999986,1.6811764128001416,1.6798507393016588,1.7805013140726424,1.798613646237671,1.8569243464216638,2.0
Open Hand,0.4311162686327601,0.44380992822495213,0.4531780008263517,0.4711677053892699,0.48782996717328053,0.43969782967654625,0.43403453313596246,0.46531794857370073
Close Hand,0.8089994184890805,0.8100574664053711,0.8418000004185422,0.8388627734753595,0.7954553952099093,0.8727457290722398,0.8737790848654311,0.8868914558657285
Close Hand,1.3108052830237917,1.381416867266375,1.3722974963763654,1.4744398045397726,1.4618275861100136,1.565834298787127,1.5609185612604726,1.64902153747027
Rest,0.18182230550075928,0.1790648409791307,0.1564923713624228,0.14441910999081517,0.21038020426052967,0.11531415528333036,0.1660631181220367,0.1602075558182833
Rest,0.08781667644012343,0.1047997275263174,0.17367755496700416,0.1052374490984771,0.056291132891469566,0.06856175980848749,0.0,0.08158686739702878
Open Hand,0.4480853447102755,0.4907985231459337,0.413719630879562,0.44704180414709843,0.47363006309632144,0.3666556430957328,0.4861825158778615,0.4086142299727747
Rest,0.09842087462683155,0.11330255224767516,0.07797311466655622,0.12134376136741204,0.05277991044518319,0.15341881960204418,0.06282973530785906,0.04722304577727064
Rest,0.21304879241790337,0.20045447552874382,0.17968681058929478,0.2231377835071825,0.18130759616824196,0.18564355533352514,0.15036874774536302,0.11545487684228621
Close Hand,0.8632768708199484,0.8023212682046389,0.8939452078071783,0.8510586297699584,0.8414534578314415,0.8204650723678482,0.8717790561894572,0.8218425763160155
Open Hand,0.38666340608789695,0.4664276230867271,0.5295547139092787,0.4723977658030277,0.5015694578504615,0.4564020155545047,0.4474373586605663,0.46334449865283417
Open Hand,0.4425893169109462,0.46745518043744033,0.37624826784346094,0.44849032436256825,0.5199129962231667,0.45463212772409356,0.4523769609209268,0.46918449328747686
Rest,0.19857554453047926,0.09431686306508816,0.1337912034162136,0.08859671408931313,0.19756727080360797,0.17480681954055008,0.17459698643263682,0.17580275313320834
Close Hand,0.8527464527361954,0.8358025078620507,0.8339134719874126,0.8075437545180452,0.8694795694832663,0.8212996079076174,0.8884351888265711,0.8047472731099449
Open Hand,0.4756568757551533,0.446632528097513,0.48994430893286295,0.41917487277509957,0.46225743742504843,0.4796160712059752,0.43433877266277315,0.4350870050419127
Open Hand,0.922606156214816,1.008438159084442,0.9102790528312775,1.0450457532592266,1.0315619229788178,1.0924180922625537,1.0416297895744382,1.1857822581449258
Close Hand,0.8487632906697118,0.8378095308298005,0.8791045307869336,0.8906817798733904,0.8879465921455634,0.8085084928223311,0.8956718856245515,0.8374722661030825
Rest,0.0993324002249196,0.15955724933673862,0.1390706335856681,0.17567864515050957,0.1475458095189789,0.16794343624367788,0.1802106362657746,0.19760347711026532
Rest,0.13092504344098116,0.16635633743238476,0.11577381252150619,0.10579557623964346,0.15345336693636114,0.1462049120078625,0.2205370682903725,0.15296383293269175
Rest,0.09729319600896581,0.1141677144867332,0.13936051438307806,0.15147319065549425,0.07696777133727453,0.023932300786910773,0.08196095932413547,0.07474501080920151
Rest,0.09679077402758039,0.07986915961085414,0.0876862002828301,0.1195112563842997,0.11515700981855638,0.10578613306333795,0.08697904494959584,0.04239011399627993
Rest,0.08839467392084827,0.10188256161747042,0.04410423342023644,0.05522187141324837,0.022062148283993156,0.08088964327846195,0.17807456529874494,0.012049216276271497
Rest,0.10370241650138813,0.036078214480236126,0.08376702720767477,0.0,0.08219726543553607,0.09850137005468004,0.05977016270804754,0.06744620293197048
Open Hand,0.9056352351022766,0.9936643477228793,0.96563588563206,1.0236475476766735,1.0630818307263676,1.0436928197168878,1.1338479491922733,1.1031874904307397
Close Hand,0.8757299947811371,0.8865963137815821,0.9194112687449648,0.92923876984654,0.9024525517321246,0.9474204791611848,0.9151125800593494,0.9038977612954958
Close Hand,0.8545164815005533,0.8592898415973862,0.8368611726577919,0.881633899101333,0.8951091337308846,0.8839464192779394,0.8403313065175102,0.876453752646593
Open Hand,0.4646812712498637,0.49402226328043053,0.48990886483304985,0.4504100746201778,0.36658139539649237,0.46808459865269636,0.37231840094819313,0.5014478030829431
Close Hand,0.8482831004288522,0.7895724851039175,0.8749350541472563,0.8858990339481713,0.7650932058272866,0.8211405875253484,0.84613410960423,0.8757078818958016
Close Hand,1.3354937339659765,1.4362882460590378,1.3554352497025175,1.468204168260673,1.45532162894325,1.4479161366329418,1.523813696860248,1.5647488791891244
Rest,0.09970963641143098,0.10552537785660607,0.04020111466818843,0.04581656536080356,0.053209636464961164,0.025111446872231845,0.10942384693695188,0.0958621365947014
Open Hand,0.7546037634869284,0.7644645531705773,0.8085848207509453,0.8192968860031583,0.844679453604617,0.8502097366430856,0.8392533533828888,0.8578461035214054
Close Hand,0.8279551993802238,0.962969309002393,0.8988238040616093,0.8763654508541882,0.9235983283635943,0.9171468035192731,0.9408814028466101,0.8742487426238469
Open Hand,0.9083371448793338,0.939374194977447,0.8983807194915145,0.9918570705866816,1.066236131915122,1.1036949647796095,1.1377619739288352,1.1384551971790164
Close Hand,1.4547235420936808,1.5651747344308125,1.6308997106547443,1.6903847290524923,1.751576581799535,1.8007016775512217,1.8367385137931762,1.9098446928461985
Rest,0.13817846503279604,0.09913364509340714,0.14676438524376587,0.08335631469696234,0.09853566736223891,0.0636788322763971,0.11801149946188613,0.12082078998253853
Rest,0.11336026536338022,0.13331999915664303,0.1497126264923657,0.20057065130002258,0.1515853120609893,0.14640394288235578,0.1334605135727365,0.14911146448698884
Open Hand,0.9157332835874923,1.0066513471227585,1.0179836723499511,0.9398207472749999,1.0918004825127232,1.110719434710962,1.0597425174571111,1.1390985544009191
Rest,0.10174066379220648,0.04067622784284722,0.12739716133676024,0.12736387521326686,0.0712804430573119,0.07628898765259917,0.026905871705558186,0.07161911393942563
Close Hand,0.8527286489111013,0.8067488907501916,0.873545528247421,0.8551146074334932,0.9407741800724257,0.9010044802147495,0.8748902554927083,0.8587209675450863
Open Hand,0.4088329889174799,0.42278379252881065,0.4279471121410516,0.4129995794051604,0.4131839454485555,0.4449500467517911,0.40741485535647576,0.47947444356981717
Rest,0.09033651336980393,0.050722238834075145,0.0702858682253103,0.11044336390669043,0.09561781229977251,0.04962389367703696,0.12426714811663736,0.07644591113927818
Open Hand,0.45019358985202446,0.4211495277123839,0.46316257360935303,0.3867116855748594,0.37555158597344485,0.4980335601950252,0.4816330045290502,0.41327461074301675
Rest,0.026844493743350958,0.07790603554213173,0.045634745255890556,0.05805270756275944,0.0,0.09788161053507877,0.10827500754232568,0.04294521423142002
Open Hand,0.3957143205678181,0.465855656470926,0.4342510366347373,0.41234924144741686,0.43058996580258435,0.48749565886253654,0.47110279303143276,0.4454490878475529
Open Hand,0.5213916344181329,0.5552033989505898,0.5374684018115647,0.5671784763343937,0.6167808790594005,0.5352393396941376,0.6192258422874531,0.6206672211024562
Close Hand,1.1414969806284891,1.131872026464526,1.2263405906922253,1.3080710678231098,1.3422990195450155,1.3224071663830694,1.4049231400446445,1.3610339467072292
Rest,0.04794401888951864,0.06436552090156389,0.041442379295602016,0.05927221309435418,0.11587979898818226,0.08087658992509156,0.03042699814709703,0.03954748030688238
Rest,0.17942947138876314,0.02899207626650451,0.11040907133190805,0.15518944067781468,0.12950053787880816,0.10789014946508713,0.1506629570893329,0.16170589078299796
Rest,0.0878829112675102,0.061973348478592975,0.10196864702630509,0.11578117681421152,0.11206463048082335,0.07953578451886242,0.09502908698295666,0.06354449015247703
Open Hand,0.5115390529509632,0.47288678261317696,0.48213337756122815,0.4903974956886295,0.5264990604871417,0.5645641285644836,0.5584321987259806,0.541427949018208
Open Hand,0.4693150570035952,0.34789940417560267,0.49166069962285414,0.34333286021265363,0.42843828410553564,0.4858871811990214,0.43889496461616456,0.398683490613566
Close Hand,1.447534603896656,1.4583993310406425,1.4837791825536655,1.5408589001105413,1.5584739668074323,1.715475476176223,1.6879515505299405,1.7593599294869853
Close Hand,1.6998732943392107,1.7276036462534345,1.8517945996228535,1.8515170961424778,1.9946851024356262,1.9937612115768566,2.0,2.0
Close Hand,1.5420996438857562,1.571413670453443,1.5698882546339616,1.6153662097490846,1.6913251101526623,1.7565652179985847,1.7442234208339509,1.8751170923500895
Rest,0.09678178206656063,0.20206382420701358,0.19550531760736506,0.21462073984709823,0.12563583551505042,0.146682440779981,0.1400140653099664,0.17014217725504713
Close Hand,0.787278850044066,0.8335372945225792,0.8509691017376625,0.9173165737722261,0.7814016770859038,0.8466326548337528,0.9009841097820692,0.8225242858156595
Close Hand,0.8278670364754462,0.894221917046381,0.903254579332577,0.8982969480243975,0.8357161933412748,0.8166179086222219,0.8946940781262557,0.8690367520906994
Close Hand,1.6403439969775648,1.7508504211009108,1.76269294521998,1.817407250237963,1.8769743412850122,1.8852993413073627,2.0,1.96816228225088
Close Hand,1.7170608693700564,1.6700620715138756,1.7977636600485116,1.7354473737943106,1.923197485651576,1.897964734169195,2.0,2.0
Open Hand,0.5882699501597204,0.6122756699603955,0.6717581062716748,0.6419742906824458,0.6640304263991673,0.6909753434689077,0.6205437090242514,0.699334014705352
Rest,0.1541448099770257,0.13897615240668537,0.07124737480764637,0.08184313925599743,0.08828781174860699,0.05775512567281276,0.06386789191943433,0.1481291616908021
Close Hand,0.8496239400356956,0.8030630141714775,0.863540027702999,0.7842600235172837,0.8621908534489308,0.798585021668601,0.8365765272372372,0.8813224692007237
Open Hand,0.39333971473519336,0.4210006046298239,0.4600558710901598,0.4717264187224265,0.46531069522015367,0.4911489891130856,0.3882920042018125,0.49159177884256283
Rest,0.1224666987059394,0.1700587065546607,0.13064224517010675,0.19110576607577714,0.20349189883338928,0.10104498142634258,0.08952024484365721,0.1330747148843162
Close Hand,0.806205177826706,0.8539185734505532,0.8843081819052933,0.8303876977652229,0.9049690260251655,0.824887485222012,0.8416695896992042,0.8122148147881961
Open Hand,0.41009353454979625,0.43487608838414454,0.4534157641298135,0.5196845407961024,0.43520609553016854,0.42668944651138613,0.43072140789331725,0.508061400866396
Rest,0.08507000059942788,0.06202959513095045,0.08613925408054707,0.09948696926247186,0.11156264897835395,0.14169766175685483,0.09900523856399869,0.07980248430248964
Close Hand,0.8272247569235319,0.8664122578144369,0.8432811990138129,0.9048025992233645,0.8353673879856599,0.8562514144313174,0.8712307605145799,0.8194114402456991
Open Hand,0.4593856973334361,0.41673123274849905,0.4437020969240843,0.4657435364294787,0.4147091889804008,0.42549705896239387,0.4378416008240514,0.3999914598020803
Close Hand,1.7151651240612211,1.758057478133502,1.8329457469805328,1.884360584729444,1.9635199319256,2.0,2.0,2.0
Close Hand,0.8374748126027861,0.8778150961307325,0.8315161312614024,0.8349593682768385,0.8005802597997421,0.8669192560590641,0.8443510323891206,0.8271084237757141
Close Hand,1.0154370167748872,1.0685321025133196,1.108589144250859,1.094572937825567,1.1577738754502729,1.118533687931063,1.2222919233674623,1.2403497069564908
Rest,0.0820289727509796,0.0798616093331622,0.06269114397637512,0.044217418109011156,0.14653151874867626,0.1328417424676942,0.06254199110221832,0.08663819640986459
Close Hand,1.393081948587345,1.529454821419384,1.5390203481334694,1.6944911535048355,1.7438932379231602,1.769009104134495,1.7816558314773199,1.8055325982886832
Close Hand,1.6769714903687798,1.7148001159788744,1.7785449597074072,1.8381023019604799,1.8309553809324774,1.9109793430327389,1.9968485720600797,2.0
Rest,0.19925808824345043,0.09135190716352373,0.29614931397936695,0.2396790996525061,0.18871902283872213,0.2070092276082911,0.13310585051275223,0.23791669117591635
Rest,0.06858323813846293,0.027219387424017673,0.12306079514094155,0.05515754760623358,0.10071398183295614,0.0,0.08691605970075775,0.0577365063066068
Open Hand,0.4695376501441638,0.45530309401117924,0.4596415413838724,0.49623185009344556,0.4633720151061875,0.4779619524656858,0.41711530403515346,0.4116612208774387
Close Hand,0.8409170371431266,0.8894448425675942,0.8148289582088055,0.8205419129113741,0.8938288356612967,0.85265211898066,0.8734413933849171,0.864061316850199
Rest,0.12266882228392417,0.1756643426309407,0.1798312359191899,0.14957606183049027,0.16859808083610547,0.1817204676401791,0.21277786513171587,0.12721582722672983
Close Hand,1.6854435622387252,1.736279290570605,1.8238134879225836,1.9272987197425155,1.9059449189513111,1.9600257436792574,2.0,2.0
Open Hand,0.8533998545097735,0.8519425352453543,0.8705170550693625,0.9063823253583942,0.9475917502150574,0.9910547632006409,0.9641601248487274,0.9923782723510682
Open Hand,0.4878823175427108,0.43103058099208325,0.4901889748580596,0.468976835000349,0.45856386739205723,0.45509301818674586,0.44387611871500376,0.48659740420732434
Open Hand,0.7307678005664607,0.7377317265074746,0.743789480040927,0.7600542896416853,0.7508315277887712,0.8189459014849108,0.9010756299600483,0.8463612108250705
Close Hand,1.597249579726848,1.7299750778704703,1.7599148870299821,1.7631851237471325,1.8988944533758867,1.9740868660226916,2.0,2.0
Close Hand,1.1366748517752814,1.2770488122768533,1.2201500605981679,1.274800930413023,1.2682540985914368,1.2936088230239293,1.3161436263090118,1.3038981548689041
Rest,0.08249639067907513,0.07961107826173922,0.18078808927075227,0.08274478868493376,0.0684439596292716,0.12655796970271324,0.10365633515693111,0.13599500119997687
Open Hand,0.44718605621329444,0.42661122989409006,0.4084743207632605,0.5001906399658833,0.467647263148706,0.44895591216694086,0.4302318827114151,0.46036593546200594
Open Hand,0.8351412601335358,0.8476242445110548,0.9138437727686759,0.921371584104174,0.9672582214546618,1.0706513058768865,1.0305364313418743,1.0826607944650877
Close Hand,1.380845952403898,1.4428852660682223,1.4453807166459407,1.5095716856394195,1.5571952515549872,1.5682994459171362,1.6690338948874426,1.6813193290598454
Open Hand,0.46850896226846145,0.4632286919111926,0.5167781972671409,0.479675565132407,0.4351980010462124,0.478632453264607,0.40108176416691876,0.416313458871162
Rest,0.06782339483499915,0.08351656669276557,0.07598353003377543,0.09558169118457653,0.15835701750927242,0.08263624828536718,0.08213499423080856,0.04723018917596493
Rest,0.09295571976558599,0.11746629677031564,0.07068738863105724,0.07790219904500298,0.18034642549426344,0.1276609440257633,0.09478475076072208,0.09350333072209138
Rest,0.06684229799273553,0.017795313463843856,0.031102837255190755,0.10881335230683069,0.0930540340176452,0.10052766810535996,0.10509741218687857,0.07778016536577428
Close Hand,1.5409426880177879,1.6016920639909145,1.6338146523448098,1.7053980667811406,1.7186390596141918,1.8104519364720528,1.8388228396051223,1.917131611010101
Rest,0.11580886708669044,0.12755166847126012,0.07854542920821425,0.13586214741922362,0.11998873039255624,0.1179576583336494,0.21300305982518677,0.1445014345273009
Close Hand,1.6739591318404652,1.7490762278119474,1.852187347366849,1.89674554074699,1.9405741651810535,2.0,2.0,2.0
Rest,0.14315439930671348,0.06107281626751151,0.12296166763468032,0.10066487517319468,0.06144830331355604,0.0,0.17696284744706298,0.05359235023734311
Open Hand,0.44728963963287294,0.3862314619651172,0.48930857385913135,0.52227584901953,0.452802891861808,0.3756246456283944,0.47131116808019613,0.4183568791847822
Close Hand,1.59082464758546,1.724326695939326,1.7235279757968252,1.794417468387763,1.864113055703699,1.997992919488677,1.981831900283275,2.0
Open Hand,0.9077145009565994,0.9242679483510933,0.88408405126112,0.9253653859374891,1.0359159171999799,1.054089940483247,1.0631534530525275,1.1393868752665173
Open Hand,0.4119712740817998,0.485658393512236,0.41715094084417687,0.42638731236361865,0.42937551993276013,0.4473330371448069,0.46131191589005477,0.466929548776298
Rest,0.16482552322109045,0.1599907631703353,0.10400008776925426,0.20686688392646996,0.20060810027313108,0.21251911806156953,0.18692645028645954,0.2648376972526869
Close Hand,0.8827750247813274,0.8437629669997941,0.88581934221069,0.8648156569473185,0.8600791247799952,0.8369096080440904,0.858134966492153,0.8917498450233448
Rest,0.08808602571199668,0.0790384225694809,0.0943432025168732,0.06832769233059145,0.07930577779282136,0.06703574270606517,0.15245782314588904,0.09279609173378868
Close Hand,1.099366723133691,1.1118975804124687,1.2041512412864968,1.188194546953538,1.22296516215412,1.224672752859529,1.2144350379765056,1.2719280332512346
Rest,0.055819543842771185,0.0688745578586776,0.04159288213730213,0.07853008934838304,0.1225124027888064,0.06855907482520786,0.10710579332677955,0.04326109632407443
Rest,0.04197645550492135,0.11237287230138039,0.12176552133328444,0.055818564578009655,0.07261883393265275,0.08488660843178217,0.10479056785574388,0.1138763275403095
Rest,0.07462176047001788,0.064922710383336,0.12885888913449428,0.09160213587144438,0.04598201043749379,0.14368952650119216,0.012491653856822386,0.10214008666468388
Close Hand,0.8595859378390889,0.8849084604297228,0.8681674749522634,0.9116308399011306,0.8682814639999109,0.918762243195908,0.8815377594083179,0.7867987455981108
Open Hand,0.453112743931125,0.3987413671090244,0.41404692911593194,0.42372557222235435,0.47953786748120447,0.4373086167347079,0.4343246755878239,0.5184142380393937
Close Hand,0.7427996156888992,0.8945347756099417,0.8930590460257893,0.9160569331189581,0.8493865113101238,0.8047577819300737,0.835314565507215,0.850399858037646
Close Hand,1.6338559522213303,1.7187120139576728,1.753675784268833,1.926666801694719,1.8829507223984558,1.9467704883021837,1.942351268254553,2.0
Close Hand,0.8526966457206087,0.9046416132136649,0.8788064646099486,0.9317451342675795,0.8399588511541171,0.8305245024812211,0.8624625539121137,0.8374082423141797
Close Hand,1.380124851472285,1.4060110190432902,1.4785558966202774,1.5691966748604982,1.5563425451831072,1.5880127605263388,1.6678358498146093,1.7237736139766313
Close Hand,1.4801875572227157,1.624839101056592,1.5383955194578323,1.6563447027454206,1.7074774217249233,1.8152649119378537,1.873227023291424,1.9140375858417293
Open Hand,0.39190392415031094,0.4608079746896858,0.4189387661340244,0.40940562499815625,0.4345331494022108,0.4435845855250459,0.4274527112364743,0.4706046147375303
Rest,0.1550330581878539,0.047079224130214745,0.1109415205168529,0.06644054302963068,0.1687647465035907,0.04628999811785541,0.14745591357304494,0.05424108372707262
Rest,0.16846111678685866,0.16226090033168936,0.09968410424094651,0.16360775807841935,0.18762775737019752,0.1531104732767679,0.22797135884217049,0.16256770919549962
Open Hand,0.753413664285251,0.8707236047208433,1.0070342468159215,0.9701144447772665,0.9678822391530835,1.036318850386103,0.9979812745875635,1.0747822731367287
Open Hand,0.4664438723121738,0.4749549098870785,0.393713496607596,0.4212054291922315,0.49332592907715556,0.46004118914024117,0.3830177092809876,0.48634014751443366
Rest,0.17035650520475756,0.08324788239800442,0.17314643516589692,0.19696277222212077,0.11415898589555731,0.2487973063377035,0.11954327199583449,0.15463212666316528
Close Hand,1.1558620284418282,1.2951274285852816,1.225662404174699,1.2796678574862492,1.2671147196204169,1.2900190482392089,1.332589882965864,1.3569668283022824
Close Hand,0.8502526459853812,0.8403619684584993,0.8728782394265188,0.8876224920605225,0.8469447049292176,0.8415752183965546,0.8682951936830644,0.8410284967007625
Close Hand,0.8512470399721698,0.8590709455532528,0.8968070128986655,0.8087172405770211,0.8380246682574852,0.8733316520136992,0.8668324053704769,0.8660791943669729
Close Hand,0.8434766150913819,0.7910119847314157,0.8641705300351676,0.7906200956548537,0.8551899612377055,0.8070723042442107,0.820262563770244,0.8904156235890807
Close Hand,0.9142041946876635,1.036157492736112,0.8976593025375746,0.9759688808802192,0.8870385923248733,0.9376407926037847,0.9045013386720842,0.9661745277635251
Open Hand,0.45656136852603846,0.414902750530231,0.39623702643343467,0.4101295373563002,0.4484876560586395,0.4803861872904334,0.48158285959973623,0.47207143268691665
Close Hand,0.8492204352477937,0.8611131362476014,0.8361734559914406,0.7916524480616834,0.8451136535536977,0.8617160717412478,0.8736678906240908,0.8430688380546384
Open Hand,0.8960588606906832,0.9604461592530523,0.96753502478582,1.0411100887983116,1.0337584179670496,1.0648042431408171,1.141454235503958,1.1053202192100893
Rest,0.1823425883790592,0.07983000800418447,0.12896520631227384,0.16861870512230612,0.16281909595402133,0.13573004165579133,0.08878470158188674,0.1871307375415879
Close Hand,1.3024340933700764,1.3061951093955226,1.2806700373603035,1.343170383178073,1.4017495588143938,1.4683703803417394,1.507537850157459,1.5573144129945744
Rest,0.15029578622873047,0.23098711715799747,0.2396829259538418,0.11029480370524067,0.20639444362739928,0.1527486311957121,0.1727409435189843,0.21543715972588928
Open Hand,0.6455747129615699,0.6987651563445062,0.6658723609366463,0.6310481985328951,0.6404645016787474,0.7605780102896724,0.7775692918982272,0.7254032782151538
Rest,0.14242265754416142,0.15513448344505834,0.1768684869471097,0.09355906156252691,0.13637862587704674,0.07879712899846056,0.014379365140735883,0.0523598319272386
Open Hand,0.44582218302530935,0.3932680268592147,0.3679479842053394,0.48299680304288467,0.4155251775296446,0.43405652542487994,0.40147452113554327,0.40065106039206433
Open Hand,0.7802187980717634,0.8405479379991151,0.8767762896467065,0.8847848395909442,0.9342895241969738,0.9434457410427747,0.9817140843847271,0.9662367322281583
Open Hand,0.40482984114011816,0.47074196151853803,0.5124443398096198,0.43200020598442634,0.48309637721908755,0.4405607859544116,0.45038995012584326,0.5269079114454281
Open Hand,0.42678276954174393,0.47193017364268514,0.45890939439294537,0.432916192863149,0.4272638028589418,0.45440426193272915,0.43566870566206717,0.41117670032389475
Rest,0.07378962445984097,0.016835311177271606,0.07053682943765689,0.09654081502910969,0.11807443633151371,0.037202434904395155,0.09486693712242207,0.02249234649299965
Close Hand,0.8348290634577747,0.8486146049759643,0.8489350492284075,0.9090798404513962,0.7508014326078374,0.8165069477853814,0.8501939294977129,0.8120050417779574
Close Hand,1.5329483460490871,1.666928360692594,1.6865923489388839,1.829163438742163,1.7866343813418906,1.926004335753054,1.9090054384948567,2.0
Close Hand,0.848517647164501,0.8729909228934137,0.8792669340488304,0.8537876160570687,0.8834541750578309,0.8755930640658085,0.8889532580392292,0.8844505929417147
Rest,0.1714100804311676,0.09425552242536352,0.1593207841954666,0.14574471810008596,0.1261159724826037,0.18443522030508652,0.12898816163214125,0.21991351433071948
Close Hand,0.8809324736441686,0.8364266260119004,0.8394888709393624,0.8983814606063762,0.8376159486851406,0.8278605387278446,0.9155282136472759,0.8483312811435144
Open Hand,0.8995976719614271,0.9214139858729886,0.8985826718100389,0.9813200325087021,1.0273028104693505,1.0210744550982664,1.093640506953239,1.0705094167984968
Close Hand,1.3421729084727625,1.4243650080031625,1.4697577217688487,1.5311395901812699,1.508572367716223,1.5601100716354641,1.6764644322226923,1.6580298219141736
Rest,0.11525374883906843,0.009739369806302274,0.06779200751660945,0.08931821325348285,0.0418602174126281,0.06622907660770992,0.09139780758020691,0.09410473034297384
Open Hand,0.5157883619371675,0.5644979305149372,0.5241094463289883,0.5381678833969087,0.605980248686893,0.607713120798937,0.5559398220003446,0.5620506555018284
Close Hand,1.1830870913819764,1.275468766488429,1.2597292928300239,1.1686180768714358,1.388766282785584,1.3379577950944346,1.3710857056640036,1.4246192867963832
Open Hand,0.6911123081955441,0.7215104299989361,0.7504441671742075,0.7768020052523388,0.8543541819790851,0.7721842381224723,0.8519382352555758,0.8492440629585172
Close Hand,0.894487515480105,0.7678974115123811,0.8398337889050842,0.8392973337021894,0.890343900711855,0.9049988248932769,0.7992437220426408,0.8993908510952247
Rest,0.0,0.1387789476035813,0.1400696154765579,0.03743401653678732,0.00026337696394977336,0.09863640275902176,0.1470473900790706,0.03028121471421337
Close Hand,0.8114450926844318,0.8768569819943637,0.8299633470302897,0.808535588615448,0.8435043962628582,0.8990165356519223,0.8563351937855797,0.9023770851687433
Open Hand,0.7289685367591672,0.8189897644844731,0.8047741762857975,0.8603822103291547,0.8143679681333077,0.866466414250565,0.853849140941779,0.8973968021136239
Rest,0.052493157845665835,0.0,0.10712749482356268,0.057523594102666484,0.1253231948148333,0.1387459506282325,0.08402208464826984,0.1602900462031663
Close Hand,0.8458767869360677,0.9572654813263172,0.8028971540873248,0.8456215447708876,0.8001693761078696,0.8364274943410517,0.8378517386259685,0.8795708009181599
Open Hand,0.3975661380423184,0.5060306293286982,0.45700018578763896,0.35724217584456386,0.43808228667388566,0.4728881737323029,0.44170416444360816,0.47502520338477505
Open Hand,0.45357898308765954,0.41069650328125046,0.47684035526651714,0.4071353327822311,0.4905632353831915,0.5500103448098953,0.4628257901300043,0.470408784748021
Close Hand,0.8427999694346681,0.8335885184840525,0.864657702035427,0.7990997521218347,0.8325075130564739,0.8464174093103585,0.887452576362966,0.8616264738378399
Open Hand,0.8639599786866463,0.8480906885919237,0.9373829142547397,0.932118355113195,0.9435241976170385,1.0426078230603786,1.088482731340435,1.1234308033769105
Close Hand,1.3959025929807503,1.5058672349728937,1.5722903053272164,1.5768126694259246,1.6495826910650966,1.6956993394692084,1.716586913755515,1.7330622621423344
Close Hand,1.4976046290787395,1.4536820506907364,1.5193090743785347,1.6004247954321669,1.7439541928855,1.7762852738399604,1.7918784160489014,1.829206076192883
Open Hand,0.5743395841584712,0.5953852522447812,0.7079140988056917,0.6173186180645358,0.6880637676350897,0.6397636879381999,0.7166206882887728,0.7101384103188078
Rest,0.14392241336204528,0.10323543631216957,0.14409322869863606,0.13452829893759397,0.151306495767315,0.23201246935322706,0.0983129680558052,0.15813885596652938
Close Hand,0.8265785955936488,0.7864019539807946,0.8596523494174044,0.9218900100965145,0.8660382417050051,0.8740361573956588,0.835543903624494,0.8414483313054215
Rest,0.13361545090615734,0.10835617706111651,0.04903715303474052,0.03524238050711831,0.08872961802505136,0.10388088327255116,0.023292704521942213,0.058044713563886005
Open Hand,0.6231970877194734,0.629296088202391,0.6363621982263286,0.6237433215311206,0.6471922831893535,0.6872737021472549,0.6386597591310081,0.6509195762143699
Rest,0.1699661943413081,0.1582254767176983,0.1688874685359319,0.2808089284453894,0.13845297976888055,0.2298360414699765,0.17511475781147745,0.2372212869772723
Close Hand,0.9134807624610152,0.8584398892200007,0.8406330527286372,0.8751421786465793,0.8852554673575339,0.8299992650175108,0.8576803985516975,0.882429602422597
Rest,0.1305027344668468,0.0755269103545066,0.0757228916461886,0.08528762979527311,0.04732521638981611,0.13027913329705126,0.1474511429957579,0.08012134631635959
Open Hand,0.6358717653817818,0.7366310972992686,0.6510194947634578,0.6562172571075303,0.6557266310043293,0.7946994036869747,0.7568292646630652,0.7314894333921247
Close Hand,0.8245964156843372,0.8308282730078594,0.8432615700666859,0.8468162286823034,0.8209255792189379,0.7791920161438429,0.8303674849692336,0.8625938983200411
Rest,0.08458816454904446,0.07785827962408705,0.007353987729877581,0.031115804436572386,0.021999186408071573,0.09784533963545566,0.05353800917406704,0.03738810241769178
Rest,0.04138622226818288,0.06986182971051044,0.11868049577989705,0.05706904180168123,0.02418287298387925,0.058191416212444926,0.10093994412043979,0.09410762044048968
Close Hand,0.8474500030600569,0.8406695290381901,0.832016528080791,0.8346096949480866,0.8889205109347877,0.8290507242833883,0.8698242758935062,0.8610108250710901
Close Hand,0.8402926358324143,0.8511973541416479,0.8743672611642629,0.8878847508065932,0.8391466641993699,0.8134522294548344,0.8526633067622881,0.8664727355136425
Open Hand,0.4317461474324766,0.4169616266347299,0.49554054220282107,0.4721697539359572,0.4711747681487606,0.49365239973998576,0.5484427236883553,0.3901770863631446
Close Hand,0.8616760806636091,0.8932720106913828,0.8925540275911481,0.8342165110717958,0.8567906107322897,0.7847564288746749,0.8534682552982675,0.8222103700258828
Close Hand,1.6126460555512327,1.6306186201200807,1.7340038458469968,1.7510911866717482,1.8934619835052626,2.0,1.9903044871316773,2.0
Close Hand,1.7094303632916494,1.7360528645593272,1.839518027260685,1.9364633224938173,2.0,2.0,2.0,2.0
Open Hand,0.6790634872116078,0.6974765633316092,0.7101316611172465,0.7421555159940765,0.8140157437712563,0.7993051114544509,0.8984069136732821,0.8374231985226414
Open Hand,0.726638072110662,0.7461779528525846,0.7358280893315231,0.7202686901011424,0.7462806835000372,0.7449812961105975,0.7567738595863313,0.7735007156481513
Open Hand,0.6570627918108639,0.7101293623571133,0.6796577835609263,0.7146449841922875,0.6359709174997438,0.7216416115765074,0.7094535107920432,0.7119279277456989
Rest,0.07607976009757644,0.08474516846023132,0.09517058811872543,0.1003569023138017,0.1548695315814241,0.1288390870313708,0.021740460217609475,0.09837358208430004
Open Hand,0.9099614643735746,0.9102785974821779,0.9500198238837421,1.0475973930827926,0.9989621243801067,0.9864130601638756,1.1627209021001903,1.2310423211443853
Close Hand,1.6825706869478474,1.7209786320090066,1.8529547899262986,1.896459645117509,1.9293857549315296,2.0,2.0,2.0
Open Hand,0.7097395126139943,0.7009190535152221,0.7289625282508272,0.7050867947165522,0.7644338829710013,0.7830082178604142,0.8200195421482596,0.812018959353288
Rest,0.0014111552805995964,0.09520867487475976,0.13037529593432895,0.025406761909760954,0.04834163057760945,0.08812885679436765,0.07835616692718723,0.06799357007289494
Open Hand,0.9029696742466929,0.9275197178269473,0.9293778664786626,0.9743618026674564,1.0339141473488143,1.0882224285430284,1.1661869926274893,1.1502825974620938
Rest,0.06695207976252686,0.0914529594264294,0.09245650290217843,0.04773584644592245,0.0763066847252572,0.10894358217606098,0.14503216335421787,0.0953156350055801
Rest,0.04088793871540328,0.02358589949258161,0.08589880427168181,0.10657675849600254,0.08671594956920302,0.025273831546446766,0.06422531748019229,0.1366438457912579
Open Hand,0.5374039291651598,0.46706312347670886,0.5267086709958002,0.6124302921791944,0.4797443262398161,0.572506208218259,0.5510649019783943,0.6282202913599338
Open Hand,0.45673473912188634,0.4896218300944962,0.3679495737173963,0.5056658304270608,0.46312717531623193,0.48772451745108136,0.40730434893054673,0.42092305414381326
Rest,0.11542560777330486,0.05270460904556162,0.06138703509412499,0.0832200055233487,0.049834081416008244,0.03352209770960977,0.011931836091021015,0.0769386130195168
Rest,0.1181567463265666,0.13741354305199668,0.10712676289944773,0.015998392729050834,0.009836692148509393,0.10095807159621026,0.11914646225673631,0.09353241552328187
Close Hand,1.0287004739904213,1.0732147120914308,0.9972072560365882,1.0669372694194865,1.1226323109308693,1.1674012839092966,1.086302517279005,1.1573539412168088
Close Hand,0.8254345323757161,0.8439459958807266,0.8608289225642015,0.8797714756349194,0.8762227313918821,0.8111759330433421,0.8841943955737521,0.8468929212217856
Open Hand,0.45245396055566256,0.46999109232018665,0.41599334294454643,0.4758892377944523,0.47867700839709115,0.5411269204562643,0.43683635333041465,0.43396713694161554
Close Hand,0.8722427088853549,0.8413430846016218,0.8822877883824323,0.7811587712192682,0.8415138510936686,0.8333570625564275,0.8834547003914622,0.8735466968858318
Close Hand,0.8313705007682517,0.8895841049732195,0.8401799664180973,0.8980355113197488,0.91242197045654,0.8241448302100942,0.7477651639856073,0.8865578340144945
Rest,0.05321420728784158,0.08331866360713196,0.0,0.078650075004346,0.10719079674484905,0.045738806343840734,0.09476951910107863,0.09526165952603972
Open Hand,0.4762228024520299,0.3909428306955327,0.4174407359455482,0.5030729026353867,0.44086850619497026,0.47939729117964797,0.45829343860517363,0.446326464539994
Rest,0.1320258826012965,0.10265910626404881,0.05843180556162355,0.02516671749483281,0.07176819940068567,0.09365430763586949,0.11682924904060801,0.11119412900148246
Open Hand,0.8433108495829797,0.8911030576763994,0.9342636555887911,0.9657368429992806,0.9343072177879539,1.019742005414489,1.0689727726886835,1.0905092778074077
Close Hand,0.8525985272142208,0.8199776999302854,0.8308743179858203,0.9020152726051173,0.8536210007712793,0.8304279134195998,0.8099170210189647,0.7844904479760197
Rest,0.18794007984598574,0.2139573094406952,0.22618851193896866,0.2157938716779036,0.16023665465515707,0.19905814841324726,0.21788330755294052,0.1398788552384682
Open Hand,0.47349298040647947,0.4228871850308278,0.42980512700178636,0.46098366570374927,0.4327888403094453,0.48124995357130346,0.42289214784703116,0.4283368706593023
Rest,0.07241712760586644,0.05173977781155584,0.08993851201131482,0.07647594754702457,0.0646852535755527,0.11006517573840412,0.047436684845251424,0.05267629497652446
Rest,0.12269396125991959,0.04469865147492736,0.06647218168647295,0.06565837178137109,0.09093708082583973,0.0894824461685057,0.08909310192605195,0.08421823156128755
Open Hand,0.46781960009411155,0.41056266638081523,0.4371688339892128,0.44726165990709,0.4459450982957788,0.44262626820472917,0.4622076089827059,0.4438676528141942
Rest,0.05721323522781478,0.09996490806393232,0.0015974037237826318,0.11270155343928599,0.057105718644118356,0.022849941336109954,0.04118686861494995,0.07804419377250407
Close Hand,1.654624582659878,1.716481552594996,1.857487974987982,1.8734729814030429,1.9627405252133008,2.0,2.0,2.0
Open Hand,0.6979946577146693,0.7444504940179237,0.82194156740089,0.8902254489106262,0.8676474871857076,0.9009647039414581,0.9065221641070643,0.8946281224679083
Rest,0.17786948180823392,0.1479044293110179,0.16709741636321562,0.12059894195620936,0.19161035651353264,0.21267043542114797,0.2135791312612402,0.24635352233771984
Rest,0.16912291594879109,0.13524741296866838,0.12269080822300021,0.17353533606593996,0.19272347044759175,0.11695938132214895,0.119639947463764,0.18681827847484198
Open Hand,0.8324235174828348,0.8802527496889156,0.9268274411986549,0.9246725053137147,1.005171456040497,0.959358914624949,1.0309387198677518,1.1530255332610655
Close Hand,0.9022655546744014,0.9137221409022002,0.8413111263578738,0.8653640424146365,0.8068818472270529,0.871828671426769,0.8325632651797971,0.8119467637444076
Open Hand,0.9045736713471483,0.9075338219066075,0.9181464090138828,0.9768037844287382,1.029057549256544,1.0671387204464742,1.1561263252095226,1.1015865289917928
Open Hand,0.8361645397659626,0.8605646013417597,0.8380678965927385,0.8969270268469616,1.001574924409002,0.9254784798991345,1.003895815448523,1.04811675086007
Open Hand,0.9098442488378239,0.9895329802775907,0.9132333162770453,0.9598908420697493,1.0322299838592388,1.115165585921538,1.0507806495408145,1.1370672445161143
Close Hand,0.8956814816601286,0.8580103562287301,0.8292906636978977,0.8988082362266788,0.8354183502336509,0.9059568937122351,0.9057423182814437,0.8589341066026449
Open Hand,0.49892157676750687,0.5392441222452181,0.5302079116052651,0.5452573421726065,0.589241951187158,0.5227414790812732,0.6255204801058454,0.6387314024685052
Rest,0.051681809585620804,0.014515777952685412,0.16144122303587932,0.062420942250726606,0.062107413692987695,0.15610690873012845,0.06389140786462638,0.10514105583064812
Open Hand,0.45595085099891,0.44173126285817094,0.416938022338294,0.48471630188952086,0.4649394168007499,0.4343178043050213,0.45509225664623587,0.4470662117474313
Close Hand,0.8185802410358662,0.8741171867655348,0.8235361625255287,0.8154234841215566,0.8553610167540854,0.9325194730509229,0.8762160496890801,0.8547676754722048
Open Hand,0.8448844514104862,0.8848558579514686,0.8866744896755467,0.9159158031169179,1.0049624341079775,1.025617805639664,1.0579828407066454,1.0838798594789216
Open Hand,0.4310539975597523,0.45952003874091163,0.42800880051140555,0.44025717458946156,0.4654475542385482,0.43779295615795444,0.4579120856185709,0.5057454959606849
Rest,0.160788168688648,0.1711055662723262,0.11675136276370471,0.17583598055595243,0.12845949033058507,0.19968858925553834,0.1512557592608621,0.15129375963462763
Close Hand,0.8085697535282151,0.7923818208860507,0.9197459980292362,0.8275150662102047,0.8451926454578167,0.836077160796105,0.869183069642875,0.9120476473081865
Close Hand,1.6557244329732859,1.777456345126068,1.8433092542888199,1.9309150251692604,1.885888989344429,1.9788530975459317,2.0,2.0
Close Hand,0.8460285515963474,0.8929901904926594,0.8709880605977125,0.8249700675030992,0.87467618990935,0.7714702083841412,0.8236468970548365,0.8211637959354562
Open Hand,0.4752795951512301,0.4366848533656296,0.4400829889202375,0.4713850685938841,0.3929850852228895,0.5058959750947845,0.45638362251533565,0.49483304730731487
Open Hand,0.7699194000864936,0.8146970890724846,0.8622927675597586,0.8162707711464401,0.8749648330522852,0.9572117083793206,0.9053557913006028,0.9286232438016676
Close Hand,0.9020508517710367,0.8230196839766617,0.8330744091701895,0.9263481527857488,0.853369143741914,0.9138176690445132,0.8572400061046527,0.8586163098813903
Rest,0.13653954134408747,0.07880523002514973,0.06046887524638764,0.0743803096515986,0.05553955236590781,0.09584278034500615,0.09579907261424651,0.021836972368096372
Open Hand,0.4486962761606756,0.4569144698884626,0.40851853968136886,0.37347453074373016,0.45525283956207585,0.46133965896952506,0.4923242598948882,0.5049967535628829
Rest,0.10990059489073169,0.08968394600355292,0.08789776894183728,0.11095827899346897,0.0,0.05805646544247912,0.01331709786691801,0.10688415579254311
Open Hand,0.8314484752617018,0.9445111372772725,0.9247147005807933,1.0043856968046,0.9815558781696575,1.0822434090822455,1.0736267227770937,1.0922010221783471
Open Hand,0.39851096679652886,0.46760670339319027,0.3655062252139137,0.47269379039335496,0.3977762957584453,0.4518710269416116,0.4458290906935228,0.49093383515528594
Rest,0.09303284198078358,0.11002936494601824,0.15641329930755202,0.17214574222557202,0.1841990248969897,0.06561544322492666,0.17227951729406607,0.23308888867711572
Rest,0.01597227693027707,0.2205327352920982,0.12274446920139172,0.05080849282414178,0.19035166727139446,0.07094807752063413,0.09830143577678772,0.19263158952385592
Close Hand,0.8341184792833038,0.8032378385730607,0.8527174201784509,0.8436571796422832,0.8387423077975312,0.8569569737121051,0.8761800791957564,0.8745547915179164
Open Hand,0.8544498780764124,0.8982274866660873,0.9642942575000153,0.9892873006697963,0.9862604687290402,1.0013145544650783,1.09734267748401,1.117537932228326
Close Hand,1.3756564618667675,1.5553188647306384,1.5720001924584346,1.5398678945503954,1.6875457037524435,1.7620242637344672,1.7842949103629941,1.8418418252414195
Close Hand,1.5121414993044502,1.4823134384388217,1.4844240040473113,1.5314102265350993,1.6526545574600258,1.6703821173804518,1.7501607855002557,1.7477929759113835
Close Hand,0.7921076842158759,0.8659732364882808,0.8231435482295518,0.8575019376379608,0.8552905031087663,0.7838868400535067,0.852837858954405,0.8680086383881059
Close Hand,1.1065901216220204,1.1359945719514495,1.1595074354974335,1.130530521990465,1.1492725454018395,1.2286455135831336,1.2018030347421294,1.1477819311139672
Open Hand,0.7499629046476587,0.8020273367685219,0.8433532751732751,0.8352304894712439,0.9265135684080639,0.8978094092519633,0.9240169833344944,0.9078458860435028
Rest,0.0393701043149414,0.06692653493243286,0.11695444572184972,0.0707699309045596,0.08260539677256748,0.13109537262099408,0.1450459752189571,0.05392885150382595
Close Hand,1.2048860340875724,1.3186477200889397,1.3917886270853397,1.4189732253870417,1.3870512899871372,1.4268601699633383,1.4789976694911255,1.5449215131607588
Open Hand,0.6501145475967921,0.695969859420431,0.6562129291084008,0.6848512132038109,0.8291858197000987,0.7280667544211298,0.7532034235064212,0.8743472662301922
Close Hand,1.0954633267312552,1.1152912189582023,1.1843547762560585,1.180128351068006,1.2849808684778332,1.277850469917482,1.301867566607687,1.3014811274465012
Rest,0.0639235143054635,0.04953899707248779,0.03675050882042368,0.04699866828695955,0.10414484502269983,0.15577569390255444,0.11179894193066148,0.11431040323636014
Open Hand,0.9210477891018228,0.9355695530500993,0.9233138578924807,0.9970043601412167,1.0869689240347158,1.1329791678523984,1.1350797373537482,1.1039847106751974
Close Hand,1.7268106893509363,1.7864443938938626,1.7840788359708808,1.883209364783465,1.9621797957982865,2.0,2.0,2.0
Rest,0.10522139779957936,0.10651661421887634,0.04381308299701012,0.10118499562515325,0.07910436589715787,0.01601147910386608,0.06460170822443939,0.04780679646996501
Rest,0.04771541825240569,0.11490824502008481,0.130558647296694,0.1062850690848606,0.1634323251196758,0.0974936622199814,0.1452318165668433,0.12327996319321344
Close Hand,1.4183392188787451,1.389296605370149,1.4793705461716218,1.4250948601691154,1.510189019358915,1.6081689808672845,1.5882905212751226,1.6915597056474456
Close Hand,0.8743921531858536,0.8449760843668294,0.7850626272006714,0.8736152721437583,0.830218419011919,0.8690376092964168,0.8423419625408045,0.8583313782690732
Rest,0.053530413944453646,0.048579103960499546,0.09808604813549238,0.13413590741682085,0.08459664284564307,0.10386765019258223,0.09240798558329671,0.07789799661437032
Rest,0.03146814806254762,0.07647278471211875,0.11895167499491736,0.04690513575540761,0.037338777206846765,0.04740335744404803,0.05893814060569078,0.10326490704743377
Rest,0.06839579083980002,0.09096871840653316,0.04900491741129652,0.08562281766822101,0.09094283586168292,0.1183401494504115,0.1033835555107284,0.09648461688242821
Rest,0.1436987705858931,0.16410393123715716,0.2548266438726798,0.24725504185945818,0.21099369848597135,0.22412109079999185,0.18559564797402425,0.25211192707840224
Rest,0.06716964155536535,0.12961616418136718,0.14030262310034972,0.13750938978590257,0.07882507717762978,0.03245167379284864,0.1095586183961066,0.10678732139080661
Open Hand,0.39333248629586426,0.4539856317949704,0.487765337373264,0.4080844098838045,0.4723565783586592,0.46160395932967924,0.4762551892131317,0.48051914249016525
Open Hand,0.7496398835273629,0.8236744737638931,0.858159082009142,0.8544831411887767,0.8801062746628803,0.9069340897277363,0.8928248250214477,0.9434482384133638
Rest,0.10483120526936557,0.02209550955141181,0.000571284410821174,0.02824023020361408,0.1369503342339245,0.033822769001709614,0.15363287854049767,0.11274146405665025
Rest,0.06558318461971895,0.12269444153334125,0.14637311731605532,0.15238424014100704,0.10776051556045986,0.1695396509418512,0.12502823235519422,0.12901548081177716
Open Hand,0.47026605941951743,0.5917565062854048,0.5268634693841479,0.49430595597980925,0.5565055013169828,0.5251398568408651,0.5246210829327027,0.5576634804791492
Open Hand,0.4535327877107304,0.48968262453974043,0.5237409656647352,0.4298103034398091,0.4494107146693301,0.5137719327469995,0.3967230253683,0.48596533746938375
Rest,0.04091425552913471,0.11187031117014186,0.16021304142210196,0.11881462196398938,0.12908990275273838,0.11845598734231245,0.16129772498309597,0.05596025685254983
Close Hand,1.1863755788299064,1.2218351998840096,1.206469995296069,1.2038643987049378,1.2823223007852433,1.3482275846532121,1.3010549006701124,1.3238540687847495
Open Hand,0.41496728271566663,0.4947409909187041,0.49508834362546267,0.4995411819208902,0.41739663699569896,0.483076743000232,0.497566130907874,0.4391070618540912
Open Hand,0.8592063956233041,0.8958572343816716,0.9866434323248525,1.008938516045716,1.0620337353466378,1.0721883542273152,1.1244208315591406,1.1561489313283253
Rest,0.13398321137913394,0.12801986655984976,0.1397869924547185,0.1400824938650991,0.1370635236813797,0.15183206737830068,0.21179040199776103,0.20505213408409315
Rest,0.08084445068777645,0.1623556230472036,0.2368618994626979,0.23837983282812167,0.12400906069040096,0.1833586403726723,0.20902662008395106,0.1901804581799245
Close Hand,1.6959103764078722,1.7222592223194295,1.8919307067761402,1.8814081670366913,1.9933691159760434,2.0,2.0,2.0
Open Hand,0.49233322458550105,0.4667093700702631,0.5101688174508026,0.4364743983220754,0.5068040707020284,0.46898804052374427,0.5644859142775107,0.40826313256261326
Open Hand,0.42797294304829236,0.466373692401838,0.4568286390600011,0.472029140213577,0.45461558345924036,0.4786567382621605,0.4533107386535195,0.477464105064609
Open Hand,0.47504383180964,0.42806789541706136,0.42603957089102507,0.4534620417567089,0.48522366671669126,0.5300607500228601,0.39723815800774287,0.46103697062253024
Close Hand,1.6613599800620553,1.6161616887264494,1.7709746961708062,1.7718369992906233,1.9011289273918075,2.0,1.9078157527139323,2.0
Open Hand,0.46146602044948953,0.4699570316369232,0.4994412765222681,0.48279382896700196,0.4524953114724103,0.40898845768408526,0.42899981538511084,0.4423129096828905
Close Hand,1.4438097375810806,1.404614315464141,1.4611874008760173,1.5352104962989486,1.5092696489270438,1.6200665814711321,1.6581696301050215,1.7247600842064905
Rest,0.0986097822977122,0.16298541426988036,0.08029550264536973,0.18283727647899436,0.1403417727631735,0.09458800212329616,0.017087598802217916,0.07061826530044095
Open Hand,0.47454449322183245,0.47209197131243175,0.5425744513110204,0.5473944139194078,0.42372245322024743,0.5712002465501207,0.45381777547211133,0.5221121153767743
Close Hand,1.3023382168460296,1.3323817508076106,1.3591483840140253,1.3767266547768662,1.3896140484123027,1.4132595018857685,1.5207463169196853,1.5361839688574048
Close Hand,1.4820119819225002,1.5578236140650394,1.6041425748045945,1.6556195482116978,1.69888036266034,1.7199704163433474,1.8205828970583524,1.8421935967191894
Close Hand,0.8760192394447393,0.8301745339201121,0.8109362202560482,0.8635036463755192,0.8313314250653059,0.8551133525006339,0.8029835747063208,0.8411736046433876
Open Hand,0.4657492419471292,0.4697159575730749,0.4540104552958357,0.46154802385300425,0.4772163335597488,0.4216679788387532,0.480732050261787,0.40194489440900616
Rest,0.09366818295588422,0.10082903793593166,0.024145427122527624,0.05338391264573289,0.08515451065766147,0.005564946999567917,0.05167976456724487,0.06905247523445962
Open Hand,0.48764969686892384,0.5309140893974991,0.4168528010517117,0.41422694639081564,0.4192785377064998,0.5062169706005772,0.486482436096039,0.4452565263772223
Open Hand,0.41856937863050286,0.3646581905177132,0.43330076842936716,0.4766330934058391,0.4376416284003768,0.47804124302986056,0.45520548615720957,0.4950823124591765
Close Hand,0.9804278213210054,0.9453218329861448,0.9975180296847511,0.9698457659370212,1.0125572843886772,1.0186011303711757,1.0166390585418688,1.0509171694344726
Open Hand,0.4343875717539408,0.4843066805085138,0.4598410607975218,0.42558549776912924,0.41969210406587,0.39233762953333967,0.4601756612253388,0.43758943584620247
Close Hand,1.6116361772000272,1.6955299916509203,1.7296581502379604,1.804060776426254,1.94682278072813,1.98365787408891,1.9835854714346897,2.0
Close Hand,0.8144221282332657,0.8499645368612184,0.8328431360282693,0.837969496496175,0.8780475032724442,0.9024939379030084,0.8916683646734475,0.8358300283680353
Close Hand,0.8016292457632607,0.8569065545831107,0.92488886104202,0.81959859433452,0.8479286449481424,0.8994733523130342,0.8715996872725754,0.9368054713569787
Open Hand,0.7268618527618744,0.7982008444904161,0.8376600766143901,0.918085747200216,0.8823501163886532,0.8236645677338961,0.9280918891615811,1.0532846390656199
Rest,0.12472065257173628,0.12304085840325024,0.059331401781665176,0.16664522844243218,0.16187546866389335,0.1256668675300386,0.20444485895899403,0.09320883451369613
Rest,0.09808744168540019,0.02115986986544472,0.11383576664366352,0.095462108218174,0.028476414724714266,0.04186103900118443,0.07660342604504988,0.03457197701907069
Close Hand,1.5235347725105126,1.5474734375438337,1.5740038921178567,1.633757388000238,1.7004412112156941,1.7574535466851973,1.7612543644362657,1.8847537606955138
Rest,0.05875729937340562,0.1137304682459109,0.09472637419554188,0.10082086325566615,0.1985501747359928,0.20678259716724223,0.1662369165129172,0.12703077449021696
Open Hand,0.4424664440198346,0.512380282744665,0.44251710983525155,0.38698324578930365,0.5162567109897891,0.4738837378434477,0.447549549941552,0.4370003792371276
Rest,0.21022534905180454,0.11479113170737427,0.16874538837000802,0.17545436849645338,0.1510406138202824,0.21327859076025232,0.1533262727183371,0.12587522057604153
Open Hand,0.8804557832975097,0.988080367358888,0.9535427031489605,0.9541244232710479,1.0640953856607223,1.0778457610327243,1.115823605819138,1.1666693796522898
Close Hand,0.8341256947943034,0.9012110725072975,0.8780146425270324,0.8610453438969077,0.8387344551433519,0.8616093802550108,0.8492402039039304,0.8267481637149451
Close Hand,0.8808107433232397,0.9106079808013888,0.8295668802210359,0.7857668773244239,0.8674761848923825,0.8384086862081748,0.8454114000415646,0.8694662214505854
Open Hand,0.49138857596134305,0.438660532857625,0.44285756697330486,0.4327920534762081,0.4296772009039046,0.47431347140699437,0.45895673975364787,0.4728111849491065
Rest,0.0940998534194026,0.09203999266614608,0.13162846316627513,0.03301417493350336,0.07004783058053612,0.10925044148303391,0.10418333434388564,0.044275593693944605
Open Hand,0.4186244195356505,0.4087773581304695,0.46096327845811513,0.40802093609615875,0.339971679429134,0.4134630878893687,0.43348491232975034,0.4288092679244812
Close Hand,0.9566194236034359,0.9590972708083862,0.9584818669737465,1.0106874259413894,0.9442183096618175,0.9543750894552003,0.9630129900863068,0.9942959427756254
Rest,0.09323373309686706,0.05982035297139444,0.0797352581038153,0.06829216073055092,0.19090740984298754,0.09797376530825454,0.08483839535115921,0.08902990974606151
Close Hand,0.9030608793592334,0.8892668874175944,0.8295185573215667,0.8011094481751024,0.8660940607262689,0.7688900112427375,0.8888553940558936,0.8425244389740866
Open Hand,0.8247723628835741,0.8627216959714122,0.8203864325724955,0.9100557633964471,0.9168111733560229,0.9394387163480344,1.015739325198996,1.0659779937088119
Open Hand,0.8535114352141875,0.8769959440529959,0.8650336833223865,0.8630622310209881,0.9544951539753337,0.988579389290599,1.0373165725420057,0.9960625948662278
Open Hand,0.38919023248282614,0.4891150968926605,0.5028897798225698,0.43706906317616884,0.4602134468599209,0.48916804796978597,0.4336623784184768,0.48037214321841637
Open Hand,0.3986937976738262,0.42746884011568126,0.4314836525851326,0.44218485972811056,0.3941414994137824,0.4708350121118314,0.47332005488796003,0.4677931363756282
Open Hand,0.784270379289889,0.7905017918867477,0.7994741870227204,0.8191558061987828,0.9654139617099096,0.8882503725966094,0.8720474195599813,0.9241739911311356
Close Hand,1.68420796498289,1.76494577005905,1.7930751671358383,1.8519811128051322,1.91425438032658,2.0,2.0,2.0
Rest,0.16324971884304015,0.11492347746011197,0.1257866659384997,0.14208535615384638,0.21771210836330243,0.14137899764975864,0.24570385888355809,0.22162697012762592
Open Hand,0.8009791567783952,0.7785015247873648,0.8153116662884231,0.799147412595813,0.8350518153936018,0.8315081938920217,0.9137487812873532,0.8610680326365148
Open Hand,0.832698350173967,0.8839481808495447,0.8851481023276326,0.9119565895667313,0.9857006766174656,0.9888375121400708,1.0266791666501074,1.0578469049160004
Rest,0.054429969574446936,0.062012964635389245,0.088312559420191,0.05748160084446503,0.09968637216921562,0.11536766615001935,0.14660196919123092,0.15603505911444
Open Hand,0.4196343171957854,0.4524673680157407,0.4282645885817419,0.41692731575329656,0.39320314344067164,0.4374487426261479,0.46984397308543036,0.4256869226317399
Open Hand,0.46019218203960227,0.5337436853056384,0.4129914639367852,0.38357649250350784,0.4950306545950532,0.42106168131124244,0.4492752772562818,0.42949286263419456
Open Hand,0.4638109797479689,0.5145440744687995,0.46378037497600394,0.43645862072720615,0.47681643883975994,0.4416175477544639,0.4367600173922528,0.41645393130066577
Open Hand,0.8211918898725776,0.8832567094027165,0.8042651174650052,0.9302014791991339,0.9516761664484347,0.965053875611237,1.0626207033723478,1.0444200533182637
Open Hand,0.4296397527779214,0.4372085642060021,0.4018430243989457,0.42800701121581824,0.42449863301591656,0.47700366409166717,0.4783192458846586,0.44489663396689144
Open Hand,0.46249180972254966,0.41190922724308576,0.4918885848183644,0.45358086168331013,0.3894825098640212,0.44820299995792606,0.4598422259573017,0.4840477326502509
Close Hand,0.8689474543855092,0.857139981138875,0.8794974338577227,0.793047726770735,0.8454054283719764,0.8015653727154044,0.859684570616171,0.9074675561548794
Close Hand,1.475631408928189,1.476094637256125,1.6166617252994626,1.70489107752709,1.7343882260732353,1.6764804479680318,1.7442380035805005,1.818853642698781
Rest,0.0483835315295277,0.08331201350196277,0.12474804884103141,0.012358265165748276,0.028886371286746204,0.05879795871694583,0.11640086487924144,0.13127286542254116
Open Hand,0.42144606732054485,0.4162678684467964,0.4943206595009278,0.49803198200032817,0.41531127895444275,0.4838799581593853,0.4469564008537893,0.46189330010716506
Open Hand,0.4647801156693876,0.4873961723535504,0.45343006699347843,0.5318245791710258,0.4367686247893983,0.46134312278120165,0.42204179892874566,0.43769663426998473
Rest,0.14519095783503752,0.13868001835641874,0.15045212306241723,0.09793797818466235,0.15638347276296533,0.15683336396266656,0.13058714413462896,0.1827496960539109
Rest,0.15496977460934072,0.14711857329272832,0.13505441806543667,0.1423118770691271,0.13112047987564507,0.23266232431193457,0.14986162323180857,0.1670145762308554
Close Hand,0.8537716731036712,0.8291326354163777,0.843124987729784,0.9416360698253144,0.8563766395309239,0.8657585755963142,0.8253081772839373,0.8857025695750453
Close Hand,0.8481024589467838,0.8685911055289349,0.8516226026687397,0.8543611414960898,0.9103193764928404,0.8920605510863843,0.8527791335318501,0.8575058930777611
Rest,0.08488256991076326,0.09782629109169311,0.1251788921916685,0.17482620910547464,0.04102552682020854,0.15729423526595604,0.050074123598698894,0.05877232691649901
Rest,0.01669633217567771,0.12197778075948396,0.14641040555034923,0.04092112689769722,0.08442516832591057,0.10094773786714842,0.10559266097917816,0.05611107369892396
Open Hand,0.39973162035905013,0.5210630546765687,0.46066343246926394,0.46679308120180524,0.4030927065239133,0.4499590503847594,0.467823679454458,0.44115348083129513
Rest,0.16645217540527826,0.03714909912886162,0.023264213185774055,0.15080239566441697,0.0460613152632552,0.04944708715904432,0.11457452511055582,0.11692618256395663
Open Hand,0.4303885468509581,0.4625460851728369,0.41871852815969346,0.3710688554534085,0.46424954311228966,0.4681686049284888,0.44301288613628287,0.4098233993683497
Rest,0.10829384049342972,0.0956597019438707,0.12917878205149785,0.06057081052246173,0.028600516672830298,0.11817780107444277,0.08070674229522337,0.0707427153275835
Rest,0.132286466558742,0.11448055023010978,0.018921431983041036,0.06959891964475882,0.10245376364023329,0.08286393355341738,0.08136656551450203,0.0033498922108176534
Rest,0.06765333957338966,0.05204300896043697,0.0026045052051621304,0.11402104297382958,0.0415990186426035,0.07845628277106123,0.05753981183104742,0.10345433162095241
Rest,0.03879217568531098,0.06996437332858282,0.0211727336949273,0.08745011914254934,0.008507647031020138,0.09547029155991747,0.10880699393124162,0.11589278538353237
Rest,0.11786252360395633,0.11465367483769737,0.0036872693904859595,0.1700753597529887,0.12119834335071908,0.12817718317826254,0.08501212368277072,0.15422907748664774
Close Hand,0.8093899498914051,0.8504320910099149,0.8109963621432249,0.8155746826075616,0.8302914972881893,0.8666991838257815,0.8387292079976653,0.8273053656261058
Close Hand,0.8485738774763982,0.8803792977021891,0.8657930284932641,0.928042829031824,0.8937888318809263,0.9007126908662798,0.9480030077570014,0.8765354691621109
Close Hand,0.8243495715869994,0.8153585474990712,0.8928443902542311,0.8081442480104962,0.8431131203913862,0.8477023709299149,0.8862596315685073,0.8714993788808836
Close Hand,0.8640611897931674,0.8789143240278467,0.8305390938247079,0.8479209044264563,0.8906667297066305,0.8114033762956425,0.913164576868958,0.8031295758841148
Close Hand,1.6689458629323088,1.7804597550436603,1.8516125962569578,1.8535579076134763,1.9753715330059358,2.0,2.0,2.0
Close Hand,1.3948980021280797,1.5027631003238107,1.4895052568334077,1.5749483981340755,1.5794891249687313,1.6348269086498002,1.6032202756226175,1.7226897543769846
Rest,0.11518235073660257,0.16511582402013203,0.15052753660601037,0.14401208244962213,0.11677889955916218,0.1377940469276457,0.1448253145089405,0.13259835181652074
Rest,0.1960092979854105,0.1736671038253381,0.11988648525621727,0.2001127909656312,0.20236250004248918,0.22201175949450047,0.20054633321981255,0.21323239488762002
Close Hand,0.8162090162730847,0.7918652838847542,0.8786792142302678,0.8333954891621954,0.8207038221371638,0.8117153500545896,0.864806259115564,0.8981217699013788
Open Hand,0.5444467716142188,0.5871440359249963,0.5443178983799136,0.5758926080553095,0.5843572518588783,0.6490526475119966,0.6552057084058434,0.6464465561143845
Close Hand,1.6642998916584724,1.7635152174638709,1.8337505524079392,1.873137590214201,1.954841369548199,2.0,2.0,2.0
Close Hand,1.34430277400923,1.4002373584368955,1.408137910008748,1.5396876466463807,1.5428349312649847,1.6293233615499374,1.60185449409921,1.6291932817969172
Open Hand,0.4154943758752609,0.4247257205419993,0.4410924631307685,0.36759072849978375,0.44274001171561167,0.43094002438367807,0.477431591858923,0.4623346782653514
Rest,0.14328183092624858,0.1434824927621418,0.14571831425007337,0.22396049464928344,0.20534830256893555,0.22923740595922082,0.14420886095179553,0.2534968397503161
Close Hand,0.8586773051581652,0.8655156834439602,0.8651489416677702,0.8158116582734706,0.7923905706983211,0.8591835952785755,0.8322928335481071,0.9143409332890375
Rest,0.17664791085089454,0.15335377036063924,0.20988682423851893,0.14756455099706997,0.1715824955792743,0.19513813477662284,0.23659893360254403,0.21239166088041628
Rest,0.09763590420893478,0.05553866688421527,0.21090601045866605,0.060142173026216314,0.12347280236340791,0.0914751854867425,0.08328833463504993,0.11160240351684911
Close Hand,0.8115115252196916,0.811499644618769,0.879286461092731,0.8683772438494379,0.806115966014148,0.8283302384970532,0.8183693955418788,0.9121711754314203
Close Hand,1.3101228478884477,1.4022965514572305,1.4560198308537504,1.4049464185467362,1.5064841228680037,1.6148388088856913,1.5910541135334764,1.6912727519575614
Open Hand,0.44840546556359107,0.4329510253714688,0.439083804071061,0.5207223894571541,0.38927583712840985,0.46749258365035296,0.3912311350331699,0.44621183315869595
Rest,0.19644959669261572,0.06777214244039939,0.05892097848510316,0.00835272387453059,0.08271059433266006,0.08538964389109224,0.09669246428101232,0.1057867245905017
Close Hand,0.8436751991263496,0.825500781044627,0.8158602117867931,0.8329623249134568,0.9119698663162943,0.8550179559527826,0.82229021864209,0.7859980056381908
Rest,0.14825167410205592,0.1531726348271574,0.1324461219641406,0.1094623526676691,0.14642700044746187,0.05008985424972244,0.15024038538599238,0.15736234934314278
Close Hand,0.8119251786886575,0.8641232821608873,0.8110683829826525,0.875909951677852,0.8267961883560586,0.8075438167952973,0.8315266798774037,0.8617847517114707
Close Hand,0.871166246637893,0.7587973994365471,0.8415825364531162,0.8681266465862346,0.8356340193136345,0.8512670923740939,0.8762744993587327,0.8528323831638257
Open Hand,0.48568288211826205,0.4906032496325243,0.48661182878667647,0.43355471627731496,0.4441628493099305,0.4762417943780343,0.4637023613071838,0.43622268850460344
Open Hand,0.815679211963689,0.7709701137187891,0.8118316965603707,0.8481790064084328,0.8883086593016276,0.8804646383257273,0.9056866865852695,0.9540163440205139
Rest,0.07400396434814159,0.13830287822814988,0.12355374596908,0.1637178453343467,0.1736747969985224,0.08488780237832155,0.15678941899041565,0.15097174447401449
Open Hand,0.5468602562211291,0.47920839415791705,0.4867324512052162,0.47953779120436746,0.5017811750348268,0.44334749144847396,0.37808335423136474,0.4433994853447897
Rest,0.1434268963485796,0.22186086769943608,0.18769090659288265,0.17254532637171313,0.15680810088229868,0.16050102314289283,0.23027981676455078,0.21524732841548777
Rest,0.061858441347737436,0.08040394869033048,0.0576205259651039,0.18081835498232382,0.032865793416840275,0.11908183824586427,0.005829133604743068,0.028317614237718065
Rest,0.04366206083216359,0.16665205459177912,0.11871151864617627,0.09595655422760732,0.09995091800457478,0.11842097014993803,0.12623786048181534,0.06956459015683729
Open Hand,0.6993891831288082,0.6551488072274613,0.7178963771833357,0.7606201084054462,0.7664568783540374,0.8594555315472439,0.8259569873989546,0.8974594020227623
Close Hand,0.8778421240371588,0.8857612880678098,0.7529606236481203,0.9106733063454738,0.8722740152399775,0.9361516744908452,0.8226185889229001,0.7882792288022881
Open Hand,0.47905956862844945,0.433884663451392,0.4994835783210065,0.468282674185578,0.4648521616408577,0.44878207360564887,0.5166958178082228,0.4697906023770686
Close Hand,1.6692201462742169,1.7719846769108243,1.8285068097069619,1.9409260618200648,1.9194109123224457,1.9778474068284493,2.0,2.0
Open Hand,0.44738308774523455,0.41009276001720946,0.4450509065211118,0.4523644419428289,0.4540226869053355,0.4556671778549774,0.48637791657214935,0.41198879064380484
Close Hand,1.659915211542544,1.7083801570438388,1.7840095200857173,1.8044114691458664,1.8832278963021862,1.954206592806043,1.9626000388243494,2.0
Open Hand,0.4694300988680691,0.45154759510150644,0.42168059052706364,0.45236849403219487,0.44901937752864896,0.45676135529346196,0.527228385749914,0.4316679527510568
Open Hand,0.6430303214383367,0.6945808291373002,0.7674852907356233,0.688729279891437,0.7025519907837192,0.7376451271883758,0.7842450746737717,0.7460559975048133
Close Hand,1.037199995676757,1.0608547151859171,1.097408372185072,1.0283341610390562,1.0381522675573953,1.1422331281173392,1.1220342607475813,1.1187031786524377
Open Hand,0.8779400155309106,0.9734741118576531,0.9842972268965455,0.9971409822050213,1.0594107899601282,1.0776683742855138,1.1161987992796543,1.1747341488729417
Open Hand,0.42415681966930124,0.42843387205389166,0.4202213132166058,0.41228458633387005,0.4395121427580622,0.4074188699648708,0.46172648286380946,0.4518094412500015
Open Hand,0.3878260596280197,0.4271112903227077,0.4575355920479529,0.4141414880480448,0.4817821995231295,0.40790561949346393,0.43997718524471885,0.42948819260085547
Close Hand,1.4514491863548507,1.529709057916593,1.6147973372440019,1.6465757367049514,1.672462142381043,1.722027863385975,1.815251295325748,1.7600849349562793
Close Hand,1.6027777222469273,1.6397021606013673,1.6917108631163906,1.7080049632866727,1.8224247728909884,1.9317621872490245,1.9721864118838897,2.0
Close Hand,0.9105399476762233,0.8285941467067308,0.8767433613773098,0.8671190017685068,0.812599627456117,0.8574833396623066,0.850257807824763,0.8201382738303103
Rest,0.1148268870090351,0.13527429107812353,0.13117135076888853,0.25385984481611273,0.1788518823636572,0.2197943696803319,0.12557282638462852,0.13098241402396474
Open Hand,0.8075685090078144,0.8859301095982152,0.9357865384424437,0.9903555371829456,1.0280530492184536,1.0392392067485554,1.0828891601168262,1.0977532844143538
Open Hand,0.38908239538402645,0.4506067120202958,0.44573681715813335,0.433605100573519,0.5203824139340181,0.46921440059269187,0.47541344265062174,0.4174124279220264
Close Hand,0.8487278856716584,0.8847925609502063,0.8132088418456518,0.8368931338679964,0.8016429036622723,0.882948368267162,0.8467674627606743,0.8202430128237947
Open Hand,0.4341817157051272,0.42669428011078475,0.46519034382075375,0.4588149045353252,0.40083229583363855,0.4892937389097309,0.44670318986272084,0.4111174116674498
Open Hand,0.9652701004298185,0.90780449418536,0.9392822442831716,0.9795340228772967,0.9521534599492265,1.0045044857789358,1.034898892608137,1.1078550800338303
Close Hand,1.0150760922651916,1.016879908214225,1.0507441531867274,1.0707354309155974,1.065463547392836,1.1126303915490445,1.0746549900990578,1.0884294161808403
Rest,0.1982899265731608,0.11362416408898512,0.137206778424369,0.15683083764565578,0.10141544849314171,0.22427925719453196,0.202201695234182,0.23356106743469604
Open Hand,0.5135784448649037,0.41915665433973825,0.45761041453561413,0.44874613386669154,0.4464895816394807,0.4459987241198338,0.45374867605033153,0.4796785560212295
Close Hand,1.712626816148114,1.7921479038572043,1.8330756251407134,1.8515220292055785,1.9237036132364913,2.0,2.0,2.0
Close Hand,1.188645815285675,1.1535793702862291,1.1788861667757533,1.2038685255006292,1.238327052012871,1.2091968642847568,1.2690701049961612,1.3196827008987988
Open Hand,0.9026819270064026,0.9526877914568598,0.9339557222997158,1.0308246951159206,0.9760579625830317,1.020537611704516,1.1241401548104202,1.1928886373513539
Rest,0.08682027029714505,0.08982541193877143,0.13234220984261058,0.0,0.05626286634584547,0.06327845165816222,0.03976742094713079,0.10804268295172753
Rest,0.10759548557816533,0.01745782358380695,0.10276197669455615,0.11304128315526449,0.14167463975640082,0.08441383442436373,0.11322746501587255,0.14072140613751827
Close Hand,1.6090244254989183,1.7420249554096747,1.7746056714544705,1.7795062924843885,1.8643385731263686,1.9274988000766902,1.978939831121721,1.9999533514021133
Rest,0.11546598916092399,0.15073702858457927,0.12274862084631419,0.1785985453891962,0.20274336591067912,0.16036317719315277,0.22445071573593892,0.2125328772347828
Close Hand,0.8409587874955109,0.8455873562270532,0.8269809861922636,0.8522564124135935,0.8719852247215234,0.8417306744239149,0.8341381843110942,0.8441982279171144
Close Hand,1.4665013540450522,1.5027996957709155,1.6082133179422302,1.5776148586747711,1.6426219552995938,1.7160320007220555,1.8341654200416764,1.864729048239308
Rest,0.16206769981466104,0.16821365406641514,0.1644210183273887,0.1796152866618748,0.1374021302922267,0.2568577169914155,0.12020352127339155,0.17233421849255448
Open Hand,0.48927448069422175,0.43797624984110056,0.4511962200503601,0.4605215182367588,0.4693856712097591,0.44534232452960565,0.44579701642259395,0.4982941315414036
Rest,0.1543615430651204,0.0705625507431393,0.09898505626974449,0.13890531010459561,0.11190520422068014,0.20751333610283507,0.14713977094011285,0.10262042929852966
Close Hand,1.3861464221729305,1.409121505884895,1.4424165410090617,1.3895535268859787,1.5929047211009073,1.5303279370280782,1.6741053297555135,1.5922328575990514
Open Hand,0.5304856182563062,0.45317598973132606,0.5124861437978655,0.46250617979487196,0.4837036200637307,0.4246386131968797,0.4201184272094406,0.46608970842552455
Open Hand,0.4771144603600056,0.5256356045646786,0.43612940063527794,0.5301887361325406,0.4899567211086499,0.5196659371085012,0.4702552028726566,0.5594288821899407
Rest,0.1256033251547246,0.05912862149903723,0.1445712500393707,0.11597048278097807,0.06741746158105733,0.1578013218141923,0.09760724320484863,0.13717939253330663
Rest,0.03576497879372113,0.13537793117254535,0.09232801485339015,0.08543301615955855,0.03749164254321416,0.08895906582278418,0.12083873815937449,0.1100143529022745
Rest,0.16183948814900642,0.119212720011087,0.14822808624682904,0.051072085979604526,0.05526278986217983,0.07073521365493288,0.06811891078618489,0.10206030988319409
Rest,0.0944820010513287,0.10429164651464022,0.039709606013445614,0.08707066724009992,0.0928148161302295,0.029415677448602563,0.05744050956532881,0.101611823136477
Rest,0.16025628645025652,0.04862161169127556,0.1595176530226392,0.14543191497468794,0.14419077789144974,0.15037404895092446,0.06641298008418377,0.13671051647425633
Close Hand,1.5863097198526104,1.6940598753210612,1.7145182546465358,1.7639412477742136,1.8093410918445476,1.8731332524952269,1.9791293431060313,1.9921641787423525
Open Hand,0.466836003266728,0.46777049580733887,0.4711052398699337,0.4369306872111641,0.5242400190921783,0.4582050890768734,0.3848130336581322,0.41491684889818237
Rest,0.1586642627643302,0.12103495299226974,0.04339070035719557,0.07759313627306634,0.0769502205057418,0.0019798423399691595,0.06010487683709358,0.024494555920462454
Rest,0.1309325181745118,0.0,0.14335632824838787,0.02015659301335322,0.12180237524071669,0.1320844768854223,0.0780660985082116,0.13005613652782702
Close Hand,0.8793366186898879,0.8056338155944952,0.8234939874084162,0.7664325227028188,0.7735478661185227,0.9129367343492479,0.9229259385434884,0.8532454171828383
Open Hand,0.6867550544753528,0.6277719312676427,0.6781428912903734,0.65354789998336,0.6675899501655804,0.661477441528577,0.6993402896158153,0.7195533902891359
Open Hand,0.4028619107927152,0.45737334072036173,0.4107499133893961,0.5011824342215676,0.47832181561486103,0.45334036634707076,0.36472685178634373,0.41558044074693395
Open Hand,0.44342003144691206,0.45883572601073375,0.4763624222689753,0.4069408948340498,0.4132267635268398,0.38880186896807667,0.480323909012516,0.45876131526166625
Rest,0.06922541952031287,0.12487883602443,0.1634254291146999,0.2339547396337323,0.086637585082278,0.17997241287968235,0.20233630497809096,0.24730451672263676
Open Hand,0.4310448448372003,0.5215688136966826,0.4280871837749663,0.44164606969277825,0.41910966733274735,0.46175459855100387,0.42423072884502316,0.44350361728175325
Close Hand,1.4654985728697243,1.572023192610013,1.719148381278763,1.7533825305547504,1.8268926383082444,1.8857041582049185,1.9170961258274177,1.9340988142086164
Open Hand,0.5561009322264854,0.4464756856570021,0.5187251533939051,0.5897409416427191,0.5203809657846051,0.46829440058282873,0.5196148047994554,0.5888920613957077
Open Hand,0.4337466862731593,0.4669819381017198,0.44161339955978735,0.4627920570763477,0.5048022835921139,0.4678030840056335,0.38793049114166117,0.4658898471006436
Rest,0.1576075880009361,0.11995215171099541,0.20484541895150693,0.16885529889898188,0.24563491290665923,0.16232676118315514,0.19651047727199428,0.21335576043953627
Rest,0.13271011028857052,0.15344810389105779,0.11549161922942812,0.12022048879818376,0.2017566001919357,0.1406357552306152,0.116177720439716,0.11929247254611453
Rest,0.13638830963756315,0.1415772636498756,0.13202403995991208,0.11498563193121145,0.12649513266481208,0.08361769484468198,0.13893082572813736,0.10070383270842356
Close Hand,1.0783065749929288,1.1720080966191584,1.1639617648035312,1.0713506461451916,1.1434804118086315,1.130848668945557,1.2512419391655676,1.218354658732679
Open Hand,0.5338941682632385,0.5855685541688752,0.5965711173248162,0.64602012495962,0.6372547798736152,0.6300936997772382,0.6783961403400903,0.5951511586865061
Close Hand,1.6222340290239852,1.7924163872268684,1.8128184249405954,1.8601471355076575,1.9602358940921307,2.0,2.0,2.0
Rest,0.07704810128959746,0.09227335638430591,0.12834364965131834,0.0992980172247074,0.11462565895765742,0.13903803218270488,0.1204717578415556,0.1337793059552842
Rest,0.0641382145180116,0.053739139503921445,0.08663544031569388,0.09500772584627158,0.05978166152941647,0.03917688713547553,0.12879445852718602,0.0
Rest,0.08366928238159388,0.031887081218635226,0.0808029422607534,0.09798464689065564,0.11222338521184548,0.09298118049191365,0.010176253906600208,0.14486453155010925
Open Hand,0.4725451918003194,0.4243074286149765,0.46114673233788034,0.4420386330337432,0.4675422914489975,0.4541336212752261,0.3424439405212545,0.45626120990968133
Close Hand,0.9740787919776914,0.9862395036022137,1.0161440354052396,1.0240150643542043,1.0427769670232052,1.0524876033266928,1.0089219133433969,1.0883984305969119
Rest,0.13583950589869576,0.09304935744756095,0.06833553681373415,0.07866328310229034,0.07899229780403097,0.14624750127679545,0.08789374946968717,0.12586242623636418
Open Hand,0.8478851039890555,0.9023438446611716,0.9423996742650148,0.9732652869577325,0.9695465188647928,1.0533199306165544,1.0444727480772187,1.0903112301032332
Close Hand,1.4316417044566612,1.426362717101347,1.4539888240161478,1.5152988995280872,1.5420852535298148,1.6163394637889625,1.667448363808861,1.697158091247648
Open Hand,0.44391568049668845,0.4244647982052524,0.46322898492981446,0.4658388446642857,0.46122973762136127,0.4583510276824955,0.5052218871726161,0.412634218083429
Close Hand,0.977426992690274,1.041129636081953,0.9857315306318679,1.1453907452088397,1.1184587577430443,1.0903217550476534,1.0887364403257522,1.1785622802112274
Close Hand,1.1584125938147576,1.1644807408262596,1.2489217787511022,1.2230059348424758,1.244959756080616,1.2883223152801428,1.3626585134514317,1.3612627459462396
Rest,0.16794459004131423,0.15495501550582694,0.10343936082091137,0.1492220568999864,0.14039009995124369,0.10577440365388474,0.2325934458219689,0.19104380627005232
Rest,0.13654715828233824,0.13792591549749236,0.22434071293844385,0.14472290027435536,0.14954726901534204,0.16808861493592164,0.17587941973615331,0.22877180668560856
Close Hand,0.94298833220145,0.800673336408714,0.8295342372967939,0.832299026339807,0.9214172695013588,0.8037952872507875,0.8649072804295138,0.8586937922766289
Open Hand,0.4613698080478866,0.43856818332512687,0.4445377774712334,0.43978791982964227,0.5284643230003845,0.37157535086507193,0.4364083133903574,0.4498708841023063
Close Hand,0.8147536621500211,0.9077001153040853,0.9283826007875308,0.8667398245255562,0.8496197688655631,0.8046761557533948,0.9041251863654618,0.8526707383797166
Rest,0.1146812974324196,0.08726956958432142,0.08659802679134941,0.11640161686127097,0.07994260067402753,0.06289860758696275,0.06203522771984479,0.0697003985986247
Rest,0.09398441739990539,0.08721833832846637,0.12183342779931249,0.037365653352428814,0.1250284341662371,0.12359718747244199,0.004590307746153622,0.09630733867272095
Rest,0.08075856016714168,0.1632057326639981,0.07990561944713838,0.09712911554674633,0.08265581666987123,0.0,0.051336330822355086,0.058181287420806124
Close Hand,0.8846766607098749,0.9234128714915598,0.788336406367233,0.8378843275977855,0.8942672946467513,0.799356906750104,0.869833936743988,0.892751527007265
Rest,0.11847157881248493,0.02853907043423281,0.051840163719044645,0.009772127519279493,0.08114067529314073,0.142061420036122,0.09622430227543831,0.14400502364728723
Open Hand,0.8204524704933585,0.7167826024782454,0.793418132815568,0.8598992845258694,0.8089725697780593,0.9410974009716653,0.9274424762651609,0.9692912448560023
Close Hand,1.6621383121696394,1.744830868802309,1.8454308954315157,1.8554670634139292,1.9579947605242318,2.0,2.0,2.0
Open Hand,0.4150299288034146,0.4512881924683934,0.4560552498878279,0.38502909515099404,0.44368925420026634,0.4504925229005727,0.4424697791980105,0.4215313355678663
Rest,0.18757801872746216,0.12031563668116191,0.18619176568832443,0.11061575014365196,0.17401562368035106,0.20739546029044043,0.15788982421329673,0.2048570549264291
Open Hand,0.8756806257599318,0.9294003970061067,0.9496723401315341,0.9714669084698704,1.03549211930896,1.043950578368067,1.0745547349194755,1.142385845582909
Close Hand,1.5408536902630947,1.7039755605859437,1.7822728955329241,1.825146644270998,1.9429138855744856,2.0,1.9920792938293415,2.0
Close Hand,0.8429602337755433,0.8452330101925607,0.8075688900097815,0.876591494055635,0.8193456016091918,0.832975216938027,0.8500366515128888,0.8542428464291275
Rest,0.06210938830917355,0.13725565777124618,0.12584163470842566,0.11264033138993472,0.12173723301657895,0.12046244933543507,0.14118775858669497,0.09652290912152112
Open Hand,0.8844883802252058,0.9213984148678022,0.8725474034763685,0.9974879271859132,0.9736038417540401,0.9913106893670424,1.0735634032400894,1.1123637695546702
Close Hand,0.8557302789270306,0.8148708708728412,0.7891354470480031,0.8194604311821452,0.8483299043640349,0.7763061252626855,0.8309487372704537,0.8413335438406451
Open Hand,0.6777340936203904,0.6752479709740404,0.7275270934873345,0.7459515716885327,0.7476210707483333,0.7445574250074084,0.7583343931523343,0.7403196927615078
Rest,0.08372498351301941,0.06686327484471646,0.006638540163455138,0.07556050217422285,0.15650010725890082,0.004263928991336409,0.09931887756330272,0.16305979336028903
Close Hand,1.0426342644162196,1.0595496261176605,1.0834673868128322,1.1340531530844955,1.1609941699976345,1.1110379249874607,1.160652244815092,1.2045525823858194
Rest,0.2532935009221644,0.22399317715224257,0.09255002558439518,0.16784020256311094,0.148202304120794,0.27012460939655975,0.2617626523111374,0.19647423143607862
Close Hand,1.6787665426583185,1.7572951417575178,1.83461756597816,1.919735297156235,2.0,2.0,2.0,2.0
Rest,0.1245431911228677,0.11898848524736268,0.15773091038335463,0.060232608610960046,0.09483470042944088,0.039445594916956234,0.0,0.11169010141493256
Close Hand,0.8700467969946635,0.8535459617802464,0.8875148455029205,0.8479194612265788,0.8519617131203434,0.8678242747523717,0.8268072657479077,0.8252827792378422
Rest,0.09442781388396787,0.04974391494836032,0.04986387609519784,0.067201998832527,0.07081044119662244,0.0722196066061649,0.044985440994843175,0.1173386773654963
Rest,0.10556413310764687,0.0037204801259132047,0.04354122797449841,0.0406578687523991,0.146432597655023,0.009562285110262747,0.05336941664745992,0.10821259920497836
Close Hand,0.8737924467654389,0.8329213000278304,0.8788933892582677,0.7872531609814938,0.8135139346117174,0.777747259655527,0.8185908199995607,0.9027827014590433
Open Hand,0.44771934336507585,0.5084598147275712,0.5100010137994511,0.4845563082909433,0.46181225985865937,0.4148212763904118,0.4751517568886869,0.4444692569938606
Open Hand,0.929457767277293,0.9609848035560965,0.9430837476805618,0.9992580565076826,0.9368051861824689,1.0152955871783271,1.0801007933844387,1.0874737001419725
Close Hand,1.621333699576965,1.6638599053502159,1.7383702155073995,1.7557760381464957,1.8622080613049037,1.886168672671003,1.9715991699225073,2.0
Rest,0.1684525189442863,0.1310330460957095,0.04564217285964328,0.12398980787770421,0.13317882160014777,0.11396487638246398,0.2004335836870172,0.12399645183432599
Close Hand,0.788514315132301,0.817650701127496,0.8052861693924654,0.8453889766000809,0.8572568639364486,0.8323874027502516,0.8771966308770408,0.8527580784165354
Rest,0.05654479821260726,0.12221637316660808,0.05746719839446714,0.09203739075603967,0.06635659893912019,0.146354279531568,0.01716248690063764,0.14705645567039144
Open Hand,0.7999457299051023,0.7668116315817755,0.8414513055545956,0.8203619406128353,0.8245189802342863,0.8852791486396837,0.9262453346606866,0.8830862996366077
Close Hand,1.5897386166147331,1.6795794911515165,1.654252711621062,1.7447908515493535,1.849421362662068,1.8901951552420195,1.9976606814286595,1.9580495197451684
Open Hand,0.5943348614746554,0.6147082838858144,0.655744661883662,0.6331852071313783,0.6626686570087155,0.6417864612320757,0.6928082490671963,0.6979778861166684
Close Hand,0.8098459201864897,0.8717872418133968,0.7925585169421454,0.7859524443184716,0.8457325089166553,0.8426064852136051,0.8595305605693112,0.8272672378417285
Close Hand,1.4780394274492323,1.4398126686770651,1.5592469119634607,1.5196583257420162,1.60420386228431,1.6886202849589538,1.732364044312053,1.723612465887094
Rest,0.13641096414419826,0.14330642189959156,0.06785888871099577,0.04871458758586396,0.0484260886049367,0.023034018597764775,0.08087276247948706,0.12457989671748677
Close Hand,0.8154553025512862,0.8967734658101172,0.9012147648858283,0.859231144381923,0.8748077760666833,0.876860722306055,0.8988520253484288,0.8754823983901103
Close Hand,0.8898614530894783,0.8489565889724313,0.8331620470839298,0.8930619024870883,0.9044329787124644,0.8940887578633849,0.8203008144987607,0.8328338553655912
Rest,0.10419490388110764,0.163010691277635,0.08486579292787962,0.08892549008101942,0.04263617757239143,0.09098545618971741,0.0697948041608878,0.08297949119828632
Open Hand,0.4982207682696161,0.4499212414423545,0.47853606252600717,0.4254381568806626,0.4768084408454182,0.4233302966660554,0.48817309776308465,0.5273724307087634
Rest,0.1494718686234486,0.19239076472745276,0.11923525417570593,0.18116485150505895,0.13837841512494603,0.24555840196769296,0.21090087248989536,0.17703666224271394
Open Hand,0.8645360539105318,0.8257583422963347,0.8947312002375241,0.92473049212139,0.9627158022708894,0.9875746335065275,0.9762924377300224,0.9886250646820048
Rest,0.07348106622179548,0.16160923626067816,0.14726777407980501,0.09134280371953094,0.048460499579312574,0.14740321854749988,0.16982573224705083,0.08949670836938116
Rest,0.004455830583361718,0.06646454006629231,0.11260685112519696,0.04661790036734789,0.047973202245030086,0.15077853355313864,0.06348525408265608,0.11538405447189395
Close Hand,1.4335987186946457,1.4975228555450335,1.5043709963561382,1.5293368490538826,1.6397784678393705,1.6341644361525485,1.7059806094567052,1.6911203515112545
Close Hand,1.6282294090855738,1.727995655764381,1.6964939770037653,1.811780217013868,1.8692561641510572,2.0,2.0,2.0
Open Hand,0.4614711264483182,0.4704459175673302,0.41823338728647896,0.45127682644649814,0.3788933150967941,0.4574099824459709,0.476675223468554,0.44019759805916936
Open Hand,0.4513892734309147,0.48362570076580624,0.38165145644831133,0.3809158145549363,0.4595831345863232,0.44975091007050194,0.45595619301171764,0.4338255523689644
Rest,0.09774638306618014,0.05249292736065214,0.1459973053525625,0.11931239845519422,0.07825798486776574,0.15130644599730744,0.1336591731466758,0.05102616632798289
Close Hand,0.8625300851967944,0.8551201341137981,0.8474594568442474,0.847599788582946,0.8468496409376733,0.8371305132563786,0.8548941933255243,0.8274630025672677
Close Hand,1.617013465675853,1.7028732429147946,1.8325580057127748,1.8321043933035193,1.9434190089452028,2.0,2.0,2.0
Rest,0.09620354600604775,0.04026681801475784,0.006377583624577179,0.0028750970484792727,0.09368964056398862,0.06990899924177622,0.04113124045907281,0.05009124019884529
Rest,0.059102557668263306,0.07393129458288059,0.10393617409055801,0.07670731160248231,0.08130456270847025,0.05799527718516924,0.14460692351833096,0.11779542313753091
Close Hand,1.6878885442301412,1.7728425488915722,1.8149631272964708,1.838054865310235,2.0,1.9602745259014025,2.0,2.0
Open Hand,0.6593031088784843,0.6282759370972026,0.682156616909399,0.722785304546782,0.7482253988959708,0.7386110711736149,0.8139319457600162,0.8123565985783185
Close Hand,1.2539517678151433,1.2562110387191723,1.328020226664952,1.3953924328546887,1.330500064304187,1.3688996122071306,1.4233818984559674,1.4569123031736195
Close Hand,0.7908499381218853,0.8769390280817951,0.8803032525226471,0.8432362497608858,0.8640138040016003,0.8760822442170992,0.8215147877951888,0.8252603068732745
Rest,0.10307284688754281,0.05831889356231723,0.09289647548043001,0.0035924373400770607,0.03278736147546489,0.03953359192215765,0.030941923994099937,0.0542987259139362
Open Hand,0.4187000942341282,0.3726519439134327,0.4697659790471643,0.40757264916886315,0.4546399398463478,0.4629845878728844,0.4710823493612382,0.40785940801573795
Close Hand,1.428195077958334,1.3940533409872786,1.4353929355866804,1.4623158140937569,1.590652422535271,1.6262847054617169,1.6254573054325903,1.622420313774008
Close Hand,0.8037253135670845,0.8778617716120215,0.8424485531828263,0.921357079108626,0.8315828026422052,0.8796094462914877,0.8878769065709756,0.8317532458729299
Open Hand,0.4759911735732352,0.45154486138329575,0.44810736883867325,0.46950887950177683,0.44595145051321927,0.4566374174657836,0.41297433074141937,0.4953970018771906
Open Hand,0.4282357403288458,0.4406271899213686,0.42984845164466245,0.45742397953959285,0.4633591687067865,0.44813188044500213,0.48802140709055614,0.4284057173685828
Rest,0.13330485959270932,0.1633203415346401,0.16605729518567672,0.13058198858341596,0.0795544394875502,0.10432009788409694,0.07809098487997373,0.0
Close Hand,1.4251983986453056,1.4789745886484755,1.54016076649182,1.52906221082003,1.5747533508401446,1.6948143746466495,1.7163921402405786,1.7211041954073316
Close Hand,1.2420724036374744,1.2736151875965238,1.2894653477727716,1.2965945121955287,1.3208601841704017,1.4458466616859527,1.4199304607272425,1.4859176439746653
Close Hand,0.8315013377847466,0.874372952510273,0.8280516423201708,0.9067037148810525,0.8477887060141749,0.8529837069975802,0.8893660469615607,0.8436002535941747
Close Hand,0.8239977731231837,0.8759478285825817,0.8701212171269875,0.8006286464751176,0.8105047527293348,0.7612249498268198,0.8708385398892581,0.8408360482402489
Rest,0.13325217490938637,0.12709985640094576,0.15000687299969853,0.19530581565571334,0.10972935057895233,0.19784042771748944,0.16762295836422955,0.24030489311374034
Close Hand,0.8938429216944958,0.903888067553947,0.8676507975646311,0.9249445275408905,0.8375269430201753,0.792861833529915,0.8868612323760859,0.7856491962887828
Rest,0.12826327235651525,0.057162645406732694,0.144625782914526,0.08575067384098255,0.1033332120187879,0.009482211562514121,0.040609079699213395,0.05651694398540388
Open Hand,0.5308044646927208,0.5425836072057654,0.6195860296888458,0.5223791860986375,0.5070888583007576,0.5551400383616549,0.5606842598472168,0.5320369444960886
Close Hand,1.1610832270781872,1.1855340332781077,1.173038963795066,1.190156271708192,1.2648546569385335,1.306171464947538,1.244437257445191,1.2841866347731345
Open Hand,0.4839852217585716,0.3946881238754063,0.4656331530347616,0.4899518268836126,0.4920945282287651,0.43506882559293153,0.49077305558158446,0.4824709839842922
Rest,0.05705350158982695,0.048330480335137524,0.06692346916666503,0.09513173568944863,0.05883202009989202,0.07458542458018291,0.10139709026197304,0.07526984996543959
Rest,0.15839098094261753,0.04761961631197697,0.1027703007422731,0.09061521420279058,0.03660843168645779,0.059744834156209334,0.053470526779162496,0.010942682459680494
Open Hand,0.43507944441951696,0.3581541627874504,0.4457730998164098,0.4440458283104445,0.4788659961291789,0.3839793275205817,0.49066532263022417,0.478720975324918
Open Hand,0.4523789489907269,0.3955149416752371,0.40383394357160207,0.45041688556870213,0.5193419999540437,0.4702744434164584,0.38960278111993785,0.3411329177208232
Close Hand,0.8750233161863998,0.8712076377676379,0.8224074710194356,0.8091107470738682,0.8505517291413127,0.8696361478956793,0.8641811299067392,0.8320744054473541
Close Hand,1.7864184723841587,1.754897095794368,1.764125986589372,1.8690373165581446,1.9079632632882215,1.994411959702553,2.0,2.0
Rest,0.14311651952511573,0.07886709590459093,0.12924601735679273,0.07819336240745163,0.015716820105759765,0.09497161711813977,0.13899253481429186,0.1467935611150596
Close Hand,0.8385270069994457,0.8652147754069639,0.8509412221603815,0.8059018654631575,0.7927489849132093,0.8592017870921556,0.8984090089374234,0.8527771759418101
Rest,0.09232051120708935,0.06691804689373422,0.005199721850281596,0.04025258851031205,0.10870888472137727,0.11148427377848777,0.08152237978756915,0.06686037274579078
Close Hand,1.6811211940800834,1.666602606703234,1.7857445810313468,1.8053262167409942,1.907737916079155,1.9812615507895384,2.0,2.0
Close Hand,1.5776906436762692,1.7540944994166547,1.7041210780335272,1.7364396158273796,1.7859762748485002,1.9421621912593674,1.9686753790796616,2.0
Close Hand,1.6269549690447347,1.6680839123221216,1.6884751674703324,1.8039060739131496,1.8404615506068043,1.8633943735131326,1.9253595849541114,2.0
Open Hand,0.7110877397158831,0.7581368362904183,0.8533382652544592,0.8469275927877296,0.8243199837225903,0.8374710802139684,0.8982672006065878,0.8787088614441153
Close Hand,1.4228738030925678,1.5255714126123279,1.512598304981439,1.613600922001196,1.550932972319316,1.6603653270339003,1.7213719959511864,1.8357836926094147
Rest,0.12258416231500356,0.17905293509813505,0.13439741148667053,0.1819430596565877,0.15161403567450785,0.1572924716160653,0.18559699566510268,0.2068421371061154
Close Hand,1.7037105062776703,1.8096860030659485,1.8050659198542875,1.8599320639011137,1.8969905862368,2.0,2.0,2.0
Close Hand,1.5270918159246618,1.4895861325975455,1.6310301280591215,1.6392864266664333,1.693008925054047,1.687874798157629,1.793817521098143,1.8717228315185903
Open Hand,0.40268714258778415,0.4080346362619746,0.4135606902417923,0.4344491691731511,0.48279391484562206,0.47024393693058936,0.4683048364886565,0.41153764020433103
Close Hand,1.7423614013657314,1.7129783577805664,1.8003699646481905,1.892751783401434,1.9674340494478986,2.0,2.0,2.0
Close Hand,1.7022298575652832,1.7645716258993702,1.8599828039450474,1.8890429073595423,1.9887277533590453,2.0,2.0,2.0
Rest,0.14755389830995005,0.1681725880324348,0.0648514974260202,0.13026944440956478,0.11637453545527819,0.23266957077470066,0.1370470022280744,0.22439177012197664
Rest,0.055536433264838314,0.07522337797538209,0.13025992930494593,0.06060558527189522,0.08925905482827547,0.0531596995228516,0.13330398562223908,0.07826173369333328
Rest,0.1559469329128436,0.15853961469728506,0.09023519878560513,0.09710041667156684,0.05600787770710434,0.044177976400577273,0.06946841916108533,0.13372845003559172
Open Hand,0.7378194689721489,0.7123139569581053,0.7794233788411827,0.6842576218904962,0.7708290958918375,0.7909284580870722,0.7864487929770834,0.9148905483413191
Rest,0.1011540491286408,0.050644548748512735,0.04440584647070755,0.04964911390301397,0.06282932960262749,0.023141395140058477,0.10838247952817791,0.10697217333388578
Open Hand,0.4503947193816531,0.44656742510136227,0.4272757978136452,0.3980053298869125,0.45324378061101517,0.42310755191582305,0.45300977182616686,0.4222084760405401
Rest,0.1246093194746518,0.10005223937876077,0.027918963440561113,0.00796966312477757,0.05666640644462338,0.09746580911585262,0.07762781571122175,0.10722668001116585
Open Hand,0.4763925420535672,0.4755491402162563,0.5425647912826751,0.5833883173956602,0.537275393020418,0.5601956491295602,0.480795414207551,0.5267590791149943
Close Hand,0.8716948893114287,0.858008370717852,0.8015255907535989,0.8607833787079928,0.8306623825095039,0.8574028504701364,0.8519079615208379,0.8665106756097547
Open Hand,0.3953578977233892,0.46900003785671585,0.4858579436399342,0.42258870483996913,0.4102077096506348,0.37453919351075066,0.44067552630736884,0.4296442123001438
Open Hand,0.4480583394310283,0.3905832191668657,0.49999184071923697,0.4452696237538655,0.47612463768715363,0.4236789947138454,0.44423044664470823,0.4196601674026826
Rest,0.03902862356873168,0.09598312288321949,0.08045069450435986,0.1454118355639271,0.06646302869626079,0.11431129125202896,0.16686469607756682,0.144465993107526
Rest,0.07618207186669261,0.08401700732370801,0.0648146592939513,0.06508740168448626,0.038638710511871524,0.04509956657571003,0.09541247413282779,0.04116649095467216
Open Hand,0.49169863741019953,0.4256325781947035,0.45783885999307067,0.45006997747452804,0.4598684553587955,0.42554618474053096,0.44687378590547433,0.39406816686531504
Rest,0.06689592184450927,0.20431205176621225,0.1553921188638481,0.13506722649945418,0.18530598122431863,0.1973926229336873,0.1403836393436722,0.1874122915682276
